1756805814.80158,-406
1756805814.8026907,-447
1756805814.804586,-462
1756805814.8065708,-420
1756805814.8085365,-358
1756805814.8105397,-338
1756805814.8124795,-366
1756805814.8148093,-381
1756805814.8167453,-326
1756805814.8186312,-230
1756805814.8206525,-174
1756805814.8226879,-192
1756805814.8246257,-230
1756805814.8266642,-220
1756805814.829346,-167
1756805814.8306456,-137
1756805814.8324196,-162
1756805814.8345635,-199
1756805814.8364751,-181
1756805814.8383422,-103
1756805814.8403,-20
1756805814.84227,24
1756805814.8442428,49
1756805814.8463469,102
1756805814.8482206,188
1756805814.8505666,260
1756805814.8521476,272
1756805814.853971,232
1756805814.8561265,182
1756805814.858072,160
1756805814.8599644,169
1756805814.8619306,190
1756805814.8638868,209
1756805814.8658562,219
1756805814.867826,215
1756805814.8698347,203
1756805814.871814,202
1756805814.873616,229
1756805814.8757336,274
1756805814.877709,304
1756805814.8797245,302
1756805814.8820484,285
1756805814.883609,283
1756805814.8854985,298
1756805814.8875792,311
1756805814.8894913,311
1756805814.8914256,313
1756805814.893286,332
1756805814.89525,357
1756805814.8972356,365
1756805814.8992999,348
1756805814.9012425,335
1756805814.9033897,349
1756805814.905098,385
1756805814.907159,408
1756805814.909121,393
1756805814.91112,340
1756805814.9130514,281
1756805814.9157443,244
1756805814.9172485,242
1756805814.9191747,262
1756805814.9211905,273
1756805814.92322,252
1756805814.925112,214
1756805814.9270835,192
1756805814.9290416,208
1756805814.9310398,235
1756805814.9330137,232
1756805814.9349873,193
1756805814.9370503,150
1756805814.938878,127
1756805814.9408333,118
1756805814.9428437,91
1756805814.9447742,47
1756805814.9466586,20
1756805814.9487891,31
1756805814.9506648,65
1756805814.9526694,88
1756805814.9545922,89
1756805814.9565768,94
1756805814.9585495,119
1756805814.9604914,145
1756805814.9624987,139
1756805814.9644115,90
1756805814.9664078,22
1756805814.9688,-41
1756805814.970308,-94
1756805814.9724529,-143
1756805814.974257,-199
1756805814.976362,-281
1756805814.9782023,-417
1756805814.9800618,-619
1756805814.9820232,-851
1756805814.9841607,-1046
1756805814.9858737,-1172
1756805814.987915,-1269
1756805814.9903548,-1385
1756805814.9919472,-1499
1756805814.9939878,-1532
1756805814.995833,-1439
1756805814.99774,-1269
1756805815.0063221,-1111
1756805815.0072005,-988
1756805815.007799,-842
1756805815.0083869,-635
1756805815.009356,-413
1756805815.009961,-255
1756805815.0114937,-177
1756805815.0134468,-112
1756805815.0155628,-10
1756805815.017941,99
1756805815.0193157,141
1756805815.0213432,89
1756805815.0235512,-11
1756805815.0254397,-98
1756805815.0276992,-160
1756805815.0291045,-225
1756805815.0311675,-311
1756805815.0331888,-404
1756805815.0350862,-483
1756805815.0372288,-538
1756805815.0390599,-577
1756805815.040893,-606
1756805815.0431068,-626
1756805815.044918,-636
1756805815.0470154,-645
1756805815.0491338,-671
1756805815.0508974,-730
1756805815.053062,-827
1756805815.0548346,-933
1756805815.057337,-1010
1756805815.0594397,-1051
1756805815.0607207,-1074
1756805815.062826,-1108
1756805815.0646603,-1137
1756805815.0665674,-1123
1756805815.0690112,-1065
1756805815.0703719,-1017
1756805815.0727417,-1029
1756805815.0745096,-1084
1756805815.0765896,-1114
1756805815.0786502,-1087
1756805815.0806522,-1053
1756805815.0824044,-1090
1756805815.0843298,-1202
1756805815.0865622,-1297
1756805815.088235,-1289
1756805815.0902896,-1187
1756805815.0932975,-1092
1756805815.0960603,-1079
1756805815.0977027,-1129
1756805815.098613,-1161
1756805815.1000807,-1125
1756805815.1018157,-1057
1756805815.106395,-1030
1756805815.1070018,-1077
1756805815.1079237,-1161
1756805815.1099896,-1218
1756805815.112033,-1220
1756805815.11332,-1199
1756805815.1152287,-1201
1756805815.1172242,-1237
1756805815.1193182,-1268
1756805815.1211867,-1255
1756805815.123139,-1205
1756805815.1251104,-1160
1756805815.1269603,-1150
1756805815.1290467,-1158
1756805815.1310384,-1156
1756805815.1330156,-1149
1756805815.134937,-1166
1756805815.1369371,-1210
1756805815.1389334,-1236
1756805815.1408343,-1188
1756805815.1428337,-1093
1756805815.1448033,-1036
1756805815.1467304,-1069
1756805815.1487322,-1146
1756805815.1507065,-1164
1756805815.1526423,-1090
1756805815.1546304,-998
1756805815.1566012,-985
1756805815.1585758,-1069
1756805815.1604939,-1167
1756805815.1625106,-1189
1756805815.164418,-1123
1756805815.1664174,-1037
1756805815.1683915,-1003
1756805815.1703165,-1030
1756805815.1722882,-1070
1756805815.1742892,-1076
1756805815.1761966,-1049
1756805815.1780868,-1034
1756805815.1802506,-1067
1756805815.1821241,-1143
1756805815.1841133,-1214
1756805815.1860723,-1237
1756805815.1881802,-1204
1756805815.1900105,-1146
1756805815.1919851,-1103
1756805815.1939085,-1094
1756805815.1958766,-1101
1756805815.197892,-1082
1756805815.1998076,-1004
1756805815.201816,-900
1756805815.203789,-837
1756805815.2064419,-859
1756805815.2076986,-929
1756805815.2097876,-968
1756805815.2116072,-937
1756805815.2135983,-881
1756805815.2155387,-871
1756805815.2174919,-914
1756805815.2195547,-956
1756805815.221435,-951
1756805815.2233877,-917
1756805815.2253606,-903
1756805815.2272093,-924
1756805815.2293105,-957
1756805815.2313373,-966
1756805815.2332265,-951
1756805815.2350452,-933
1756805815.2370403,-932
1756805815.239017,-949
1756805815.2410238,-969
1756805815.2429824,-975
1756805815.2449265,-963
1756805815.2469115,-955
1756805815.2488272,-978
1756805815.2508528,-1028
1756805815.2527618,-1063
1756805815.2548804,-1051
1756805815.2568486,-1012
1756805815.2587428,-999
1756805815.2608557,-1032
1756805815.2626653,-1067
1756805815.264608,-1061
1756805815.2666714,-1026
1756805815.2685769,-1005
1756805815.2705953,-1015
1756805815.2725194,-1027
1756805815.274539,-1009
1756805815.2764592,-981
1756805815.2783706,-975
1756805815.2805457,-982
1756805815.2823768,-968
1756805815.2844765,-930
1756805815.2863343,-897
1756805815.2884412,-891
1756805815.290256,-890
1756805815.292555,-858
1756805815.294163,-800
1756805815.2963207,-748
1756805815.298128,-716
1756805815.3003147,-680
1756805815.3023474,-616
1756805815.3038383,-549
1756805815.305822,-527
1756805815.307947,-550
1756805815.3099182,-559
1756805815.3118114,-501
1756805815.3138442,-387
1756805815.3158288,-290
1756805815.3177493,-268
1756805815.3197417,-302
1756805815.3217115,-319
1756805815.323636,-260
1756805815.3256075,-138
1756805815.327608,-28
1756805815.3294888,-5
1756805815.3315334,-73
1756805815.3341568,-162
1756805815.3354137,-195
1756805815.3373873,-151
1756805815.3394058,-87
1756805815.3413923,-65
1756805815.3432565,-85
1756805815.3453012,-90
1756805815.347253,-33
1756805815.3491595,70
1756805815.3511999,158
1756805815.35313,194
1756805815.3550715,198
1756805815.3570945,210
1756805815.3590152,235
1756805815.3610182,237
1756805815.3630106,191
1756805815.3650312,126
1756805815.3668833,98
1756805815.368854,128
1756805815.3708377,184
1756805815.3727787,219
1756805815.374733,227
1756805815.376735,232
1756805815.3787215,249
1756805815.380695,262
1756805815.3826368,256
1756805815.384561,243
1756805815.386576,241
1756805815.3884592,237
1756805815.3904994,205
1756805815.392474,150
1756805815.3943465,116
1756805815.3971813,142
1756805815.3982954,203
1756805815.4002728,240
1756805815.4022574,227
1756805815.4042308,196
1756805815.4061906,193
1756805815.4083874,219
1756805815.410163,239
1756805815.4120522,230
1756805815.4140868,200
1756805815.4160442,176
1756805815.4180105,171
1756805815.4199424,183
1756805815.4219167,204
1756805815.42391,223
1756805815.4259038,223
1756805815.427941,198
1756805815.4298058,161
1756805815.4317775,137
1756805815.4337516,141
1756805815.4356759,163
1756805815.437692,179
1756805815.4396071,169
1756805815.441557,135
1756805815.4435728,97
1756805815.4455101,85
1756805815.4474535,114
1756805815.449391,170
1756805815.4514074,210
1756805815.4533968,197
1756805815.4553287,139
1756805815.4572997,87
1756805815.459306,79
1756805815.4612188,102
1756805815.463237,114
1756805815.4651716,88
1756805815.467165,39
1756805815.4690962,-1
1756805815.4710865,-18
1756805815.4730585,-19
1756805815.475029,-17
1756805815.476953,-25
1756805815.4789665,-46
1756805815.480887,-79
1756805815.4829211,-109
1756805815.48485,-119
1756805815.486795,-105
1756805815.4887025,-84
1756805815.490707,-85
1756805815.4927025,-112
1756805815.4946713,-142
1756805815.49657,-150
1756805815.4986324,-138
1756805815.5005722,-129
1756805815.502513,-144
1756805815.5044682,-172
1756805815.5064764,-192
1756805815.50845,-191
1756805815.510411,-178
1756805815.5124266,-165
1756805815.5143077,-161
1756805815.516313,-166
1756805815.518185,-179
1756805815.5201926,-192
1756805815.5222247,-194
1756805815.5241559,-174
1756805815.5261452,-138
1756805815.5280626,-112
1756805815.53001,-118
1756805815.532025,-148
1756805815.5339985,-175
1756805815.5358865,-186
1756805815.5379367,-195
1756805815.5398479,-223
1756805815.5418332,-268
1756805815.5438194,-296
1756805815.545813,-276
1756805815.5477283,-218
1756805815.549684,-172
1756805815.5516865,-176
1756805815.5536106,-218
1756805815.5555847,-245
1756805815.5574863,-218
1756805815.5594442,-149
1756805815.5614767,-94
1756805815.5634582,-95
1756805815.565407,-154
1756805815.5673668,-230
1756805815.5693603,-280
1756805815.571491,-291
1756805815.573309,-286
1756805815.575282,-297
1756805815.5772316,-329
1756805815.5791774,-359
1756805815.58753,-362
1756805815.5878654,-342
1756805815.5901322,-319
1756805815.590367,-297
1756805815.590564,-263
1756805815.5909522,-216
1756805815.5934093,-185
1756805815.5950894,-202
1756805815.5970592,-251
1756805815.5989625,-273
1756805815.6009188,-228
1756805815.6037414,-151
1756805815.604944,-115
1756805815.606952,-161
1756805815.6105943,-251
1756805815.611959,-299
1756805815.6124501,-264
1756805815.6147628,-180
1756805815.6174383,-119
1756805815.6183546,-119
1756805815.6203268,-149
1756805815.622302,-155
1756805815.6243627,-120
1756805815.6282022,-77
1756805815.6284256,-65
1756805815.6303039,-92
1756805815.6322162,-132
1756805815.6346252,-163
1756805815.6360354,-189
1756805815.6389396,-214
1756805815.6401129,-226
1756805815.6420674,-209
1756805815.6452324,-183
1756805815.6459453,-180
1756805815.6479814,-204
1756805815.65105,-219
1756805815.6573594,-190
1756805815.6735916,-134
1756805815.675615,-102
1756805815.67582,-116
1756805815.676474,-147
1756805815.6766748,-161
1756805815.6768708,-156
1756805815.67723,-157
1756805815.677467,-164
1756805815.6777008,-159
1756805815.679708,-135
1756805815.6800065,-117
1756805815.6802237,-123
1756805815.6804214,-140
1756805815.6808007,-133
1756805815.687226,-97
1756805815.6874604,-67
1756805815.6876566,-76
1756805815.6879668,-106
1756805815.6895878,-116
1756805815.6912096,-87
1756805815.6931052,-50
1756805815.6993327,-52
1756805815.7219563,-103
1756805815.7237787,-163
1756805815.7240286,-187
1756805815.7242315,-178
1756805815.72443,-176
1756805815.7246442,-204
1756805815.724846,-233
1756805815.7250412,-218
1756805815.7252376,-158
1756805815.7254329,-105
1756805815.7256286,-100
1756805815.725824,-131
1756805815.7266366,-162
1756805815.7294025,-181
1756805815.7300038,-220
1756805815.730643,-289
1756805815.7309842,-352
1756805815.731401,-360
1756805815.7391248,-327
1756805815.7393727,-304
1756805815.7395725,-324
1756805815.739768,-343
1756805815.744956,-292
1756805815.7452767,-177
1756805815.745474,-90
1756805815.7461433,-108
1756805815.7482646,-205
1756805815.750058,-276
1756805815.7520256,-254
1756805815.7540429,-185
1756805815.7559693,-170
1756805815.7580204,-242
1756805815.7615733,-328
1756805815.762796,-327
1756805815.7638428,-227
1756805815.76694,-123
1756805815.7680702,-104
1756805815.7698998,-168
1756805815.7718546,-231
1756805815.7740257,-222
1756805815.7770844,-156
1756805815.7778742,-98
1756805815.7798178,-93
1756805815.7850182,-128
1756805815.7861881,-162
1756805815.7869735,-164
1756805815.7874124,-112
1756805815.7932038,-13
1756805815.7985501,94
1756805815.7987607,141
1756805815.7989562,92
1756805815.7992013,-6
1756805815.8031652,-56
1756805815.803369,-5
1756805815.803563,93
1756805815.810016,149
1756805815.8102567,127
1756805815.8104522,80
1756805815.8113265,74
1756805815.8130164,105
1756805815.8153548,124
1756805815.8201346,117
1756805815.8203983,119
1756805815.8208156,160
1756805815.82287,200
1756805815.8248103,171
1756805815.826815,73
1756805815.828824,-5
1756805815.8306603,32
1756805815.8326929,172
1756805815.8348014,298
1756805815.8366935,309
1756805815.8386471,221
1756805815.8405194,141
1756805815.8425353,149
1756805815.8446918,219
1756805815.8465142,262
1756805815.8486261,237
1756805815.8511229,179
1756805815.8550575,140
1756805815.8554463,132
1756805815.8563042,135
1756805815.8614519,144
1756805815.8875275,179
1756805815.8890948,237
1756805815.889701,268
1756805815.889956,232
1756805815.8901942,152
1756805815.8904433,93
1756805815.8907504,91
1756805815.8909993,109
1756805815.8951018,92
1756805815.8976512,34
1756805815.8981576,-13
1756805815.8986123,3
1756805815.899064,70
1756805815.8994236,140
1756805815.8996222,171
1756805815.899817,163
1756805815.9000118,151
1756805815.9002066,157
1756805815.9004018,175
1756805815.9005957,170
1756805815.9007888,126
1756805815.9014015,57
1756805815.9033852,-3
1756805815.9079173,-45
1756805815.910705,-98
1756805815.910954,-197
1756805815.9112928,-339
1756805815.9134073,-498
1756805815.9177938,-653
1756805815.9181337,-812
1756805815.9191508,-976
1756805815.921121,-1120
1756805815.9231782,-1209
1756805815.9251533,-1237
1756805815.927201,-1237
1756805815.929018,-1223
1756805815.9357083,-1161
1756805815.936205,-1004
1756805815.9376113,-755
1756805815.9378226,-485
1756805815.938768,-269
1756805815.9409108,-121
1756805815.94271,10
1756805815.9447365,166
1756805815.9467149,335
1756805815.9486587,457
1756805815.950664,490
1756805815.961982,445
1756805815.9641573,379
1756805815.9897947,338
1756805816.0166385,326
1756805816.017945,325
1756805816.018352,324
1756805816.0195832,327
1756805816.0198085,340
1756805816.0203502,357
1756805816.020556,365
1756805816.020762,364
1756805816.0209565,372
1756805816.0212073,395
1756805816.0214155,411
1756805816.0228639,385
1756805816.0234797,317
1756805816.023696,245
1756805816.0239043,213
1756805816.0275922,230
1756805816.0356023,267
1756805816.035879,293
1756805816.0365615,308
1756805816.0367687,335
1756805816.0370214,391
1756805816.0372157,461
1756805816.0374243,507
1756805816.037619,503
1756805816.0378292,450
1756805816.0391126,387
1756805816.0395894,351
1756805816.0399268,353
1756805816.040375,372
1756805816.0405715,374
1756805816.0408015,351
1756805816.041002,327
1756805816.0411973,330
1756805816.0413926,356
1756805816.0415947,370
1756805816.041806,347
1756805816.0421288,298
1756805816.0426753,255
1756805816.0433538,235
1756805816.0435681,231
1756805816.0437636,227
1756805816.043969,221
1756805816.0444393,219
1756805816.044636,230
1756805816.044914,251
1756805816.0470457,273
1756805816.048814,293
1756805816.0507874,308
1756805816.0567555,320
1756805816.0579894,323
1756805816.0582228,309
1756805816.0586593,276
1756805816.060751,242
1756805816.0706904,230
1756805816.071147,252
1756805816.071361,286
1756805816.0715582,293
1756805816.0717642,263
1756805816.0725021,230
1756805816.0745134,229
1756805816.0765934,255
1756805816.0784328,267
1756805816.0807023,238
1756805816.0822577,185
1756805816.0917127,153
1756805816.0924637,149
1756805816.0927227,159
1756805816.0929277,171
1756805816.0931346,188
1756805816.0941174,210
1756805816.115981,211
1756805816.1165175,170
1756805816.1168597,102
1756805816.1175103,51
1756805816.1194944,41
1756805816.119796,54
1756805816.120134,53
1756805816.1203718,29
1756805816.1205707,2
1756805816.1207669,-7
1756805816.1211786,0
1756805816.1215148,12
1756805816.123325,24
1756805816.1250126,33
1756805816.125465,30
1756805816.1257534,0
1756805816.1274478,-51
1756805816.1295595,-92
1756805816.1388535,-106
1756805816.1396856,-106
1756805816.1399002,-115
1756805816.1400974,-138
1756805816.1411629,-146
1756805816.1413684,-120
1756805816.1432886,-86
1756805816.1453931,-97
1756805816.1487799,-169
1756805816.1490476,-251
1756805816.1527019,-270
1756805816.1542034,-224
1756805816.156226,-186
1756805816.1571279,-225
1756805816.1644678,-318
1756805816.1647632,-368
1756805816.1649632,-321
1756805816.1651602,-234
1756805816.1670477,-203
1756805816.169329,-261
1756805816.1713293,-343
1756805816.172676,-382
1756805816.1746533,-382
1756805816.1765919,-400
1756805816.1786375,-460
1756805816.1805599,-521
1756805816.1824799,-535
1756805816.184577,-509
1756805816.1864839,-488
1756805816.1885784,-500
1756805816.191937,-523
1756805816.1925669,-521
1756805816.1942825,-492
1756805816.1966596,-464
1756805816.1994762,-465
1756805816.201,-490
1756805816.2021468,-517
1756805816.204134,-526
1756805816.20626,-521
1756805816.2080414,-514
1756805816.210132,-502
1756805816.2347832,-478
1756805816.2362554,-446
1756805816.2367728,-424
1756805816.237019,-427
1756805816.2372499,-446
1756805816.2375493,-451
1756805816.2383783,-421
1756805816.2386878,-368
1756805816.2389412,-325
1756805816.2391925,-313
1756805816.2428002,-317
1756805816.2430007,-301
1756805816.2431972,-248
1756805816.2433925,-176
1756805816.2435875,-119
1756805816.243782,-96
1756805816.2447116,-84
1756805816.2454133,-48
1756805816.2474337,28
1756805816.2497268,115
1756805816.2513623,172
1756805816.2533236,182
1756805816.2552361,171
1756805816.257526,186
1756805816.2591949,239
1756805816.261322,297
1756805816.2635813,324
1756805816.2654524,322
1756805816.2671363,321
1756805816.2691407,341
1756805816.2720704,358
1756805816.2729685,355
1756805816.2754629,343
1756805816.2769284,360
1756805816.2788177,410
1756805816.2808137,450
1756805816.2827964,449
1756805816.2847347,432
1756805816.2867036,451
1756805816.2889254,522
1756805816.2947078,602
1756805816.294945,633
1756805816.2951403,602
1756805816.2965002,552
1756805816.2984905,530
1756805816.3004684,551
1756805816.3024988,600
1756805816.3073153,646
1756805816.3075383,654
1756805816.3085287,611
1756805816.3110628,543
1756805816.3122516,507
1756805816.3143642,537
1756805816.3162663,598
1756805816.3198025,616
1756805816.3201087,561
1756805816.321997,492
1756805816.3263657,484
1756805816.3269627,536
1756805816.3279314,578
1756805816.330012,573
1756805816.3320417,558
1756805816.3339386,591
1756805816.335898,649
1756805816.3382404,663
1756805816.339819,614
1756805816.3419912,562
1756805816.3463542,563
1756805816.3466463,583
1756805816.3478022,554
1756805816.3495886,473
1756805816.3515036,410
1756805816.3535461,417
1756805816.3554342,456
1756805816.3575072,464
1756805816.3603508,444
1756805816.3613336,448
1756805816.3633142,488
1756805816.3654242,506
1756805816.367301,458
1756805816.3810525,384
1756805816.3813982,364
1756805816.3817177,407
1756805816.3819194,436
1756805816.3821154,390
1756805816.3823102,303
1756805816.3825035,256
1756805816.38309,279
1756805816.3880384,320
1756805816.3883128,318
1756805816.3890545,271
1756805816.4136307,230
1756805816.414019,224
1756805816.4142613,235
1756805816.414457,230
1756805816.4146516,208
1756805816.4148462,199
1756805816.415041,217
1756805816.4153628,244
1756805816.415558,243
1756805816.4157526,211
1756805816.415971,177
1756805816.416166,173
1756805816.4163911,192
1756805816.4166152,203
1756805816.4184525,188
1756805816.423698,166
1756805816.446366,160
1756805816.44668,163
1756805816.4469647,162
1756805816.447912,165
1756805816.4481766,189
1756805816.4485812,212
1756805816.4487777,193
1756805816.4489713,124
1756805816.4491854,62
1756805816.449403,63
1756805816.4496384,104
1756805816.449836,110
1756805816.450031,53
1756805816.4502268,3
1756805816.4507868,26
1756805816.451813,98
1756805816.4538383,132
1756805816.4557393,92
1756805816.4578075,45
1756805816.462209,71
1756805816.4625347,150
1756805816.4637547,195
1756805816.4656134,153
1756805816.4676058,71
1756805816.4695604,25
1756805816.471504,28
1756805816.4736538,27
1756805816.4754045,-23
1756805816.4774194,-99
1756805816.4793928,-149
1756805816.4916239,-143
1756805816.4919188,-100
1756805816.4921725,-58
1756805816.4934428,-36
1756805816.4936473,-26
1756805816.493844,-9
1756805816.4944904,26
1756805816.4950063,72
1756805816.496969,108
1756805816.4989495,114
1756805816.5009205,80
1756805816.5029502,14
1756805816.5048761,-59
1756805816.5094535,-110
1756805816.5097136,-121
1756805816.515383,-97
1756805816.515802,-72
1756805816.5166411,-77
1756805816.5168426,-112
1756805816.51899,-143
1756805816.526054,-137
1756805816.5269797,-91
1756805816.5276067,-42
1756805816.5278215,-28
1756805816.5285945,-58
1756805816.5305495,-104
1756805816.532536,-132
1756805816.5344703,-128
1756805816.5384178,-101
1756805816.5385993,-75
1756805816.5428007,-66
1756805816.5429108,-70
1756805816.5441144,-81
1756805816.5467403,-97
1756805816.548057,-122
1756805816.550117,-150
1756805816.5521896,-156
1756805816.553965,-126
1756805816.5558615,-80
1756805816.5598457,-66
1756805816.5600863,-105
1756805816.5649605,-164
1756805816.565251,-188
1756805816.5657756,-163
1756805816.567932,-121
1756805816.5696082,-105
1756805816.5715709,-121
1756805816.5735343,-148
1756805816.5755086,-166
1756805816.5775409,-171
1756805816.5794256,-170
1756805816.5813878,-163
1756805816.583381,-163
1756805816.58538,-189
1756805816.587469,-239
1756805816.5895765,-280
1756805816.5941875,-286
1756805816.5942762,-265
1756805816.595423,-259
1756805816.5971575,-284
1756805816.5990722,-316
1756805816.6011384,-326
1756805816.6030734,-319
1756805816.6050923,-321
1756805816.6071458,-331
1756805816.608952,-321
1756805816.614158,-277
1756805816.6143165,-235
1756805816.6148865,-243
1756805816.6168013,-295
1756805816.6189432,-323
1756805816.620932,-285
1756805816.6229885,-224
1756805816.6247015,-229
1756805816.6287816,-321
1756805816.628932,-422
1756805816.6310086,-444
1756805816.632765,-383
1756805816.6353672,-326
1756805816.6366527,-342
1756805816.638604,-407
1756805816.640879,-442
1756805816.6424353,-409
1756805816.6451638,-344
1756805816.6463506,-311
1756805816.6484663,-321
1756805816.652661,-343
1756805816.652802,-349
1756805816.6542306,-356
1756805816.6561198,-392
1756805816.6600997,-454
1756805816.660278,-509
1756805816.6637743,-532
1756805816.665226,-531
1756805816.6671972,-532
1756805816.6678586,-554
1756805816.6698437,-583
1756805816.6718411,-590
1756805816.6741025,-565
1756805816.6757565,-531
1756805816.6777666,-518
1756805816.680018,-536
1756805816.681811,-564
1756805816.683802,-581
1756805816.6857462,-592
1756805816.6875966,-611
1756805816.6896753,-642
1756805816.691762,-674
1756805816.6936734,-697
1756805816.6955402,-714
1756805816.698512,-726
1756805816.6995928,-715
1756805816.701632,-670
1756805816.7041955,-618
1756805816.7148893,-607
1756805816.7151566,-650
1756805816.7157624,-705
1756805816.7160301,-720
1756805816.7161002,-695
1756805816.7161636,-685
1756805816.7178226,-726
1756805816.724104,-797
1756805816.724262,-836
1756805816.7244012,-811
1756805816.724915,-742
1756805816.7405255,-677
1756805816.7406034,-650
1756805816.7406495,-658
1756805816.7406938,-665
1756805816.7407374,-636
1756805816.7407975,-570
1756805816.7408416,-506
1756805816.7408845,-487
1756805816.7426183,-521
1756805816.7445285,-563
1756805816.7464662,-562
1756805816.7485387,-512
1756805816.7503889,-461
1756805816.7532275,-459
1756805816.7543857,-503
1756805816.7564287,-550
1756805816.7588203,-551
1756805816.763783,-500
1756805816.7639678,-422
1756805816.7658012,-361
1756805816.7670755,-348
1756805816.7681391,-384
1756805816.770139,-425
1756805816.772233,-415
1756805816.7741215,-352
1756805816.7764597,-297
1756805816.7781556,-320
1756805816.77998,-414
1756805816.7818289,-487
1756805816.7837977,-461
1756805816.7857838,-365
1756805816.7877226,-301
1756805816.7897208,-333
1756805816.7917106,-402
1756805816.7937229,-402
1756805816.7992747,-306
1756805816.8047965,-197
1756805816.8050206,-167
1756805816.805173,-218
1756805816.8052385,-276
1756805816.8122873,-290
1756805816.81243,-281
1756805816.8124914,-297
1756805816.8125513,-337
1756805816.81331,-365
1756805816.8152394,-372
1756805816.8173661,-383
1756805816.8193183,-418
1756805816.8212516,-442
1756805816.8232782,-400
1756805816.825236,-291
1756805816.8271291,-186
1756805816.8291411,-146
1756805816.8311734,-165
1756805816.8342984,-186
1756805816.8367383,-173
1756805816.8369873,-141
1756805816.839104,-128
1756805816.8409543,-145
1756805816.843101,-177
1756805816.844825,-209
1756805816.8469877,-239
1756805816.8508444,-269
1756805816.853925,-298
1756805816.8562105,-323
1756805816.8562722,-346
1756805816.8574193,-375
1756805816.8588555,-420
1756805816.8615074,-498
1756805816.862586,-631
1756805816.8643923,-825
1756805816.8664029,-1041
1756805816.8686044,-1220
1756805816.8703537,-1342
1756805816.886396,-1447
1756805816.886702,-1583
1756805816.8867865,-1731
1756805816.8868475,-1812
1756805816.886906,-1766
1756805816.886963,-1608
1756805816.8870192,-1407
1756805816.8870769,-1214
1756805816.888439,-1033
1756805816.8901072,-849
1756805816.8920653,-663
1756805816.8940413,-490
1756805816.8959036,-340
1756805816.8979418,-223
1756805816.899874,-150
1756805816.901748,-127
1756805816.9048147,-130
1756805816.912158,-119
1756805816.9122467,-82
1756805816.9123437,-49
1756805816.9123886,-54
1756805816.9136307,-83
1756805816.916219,-86
1756805816.9175053,-46
1756805816.9195158,-5
1756805816.9214444,-23
1756805816.92343,-95
1756805816.9253979,-158
1756805816.927514,-159
1756805816.929539,-116
1756805816.9315636,-96
1756805816.9333837,-130
1756805816.9353194,-177
1756805816.9376192,-171
1756805816.9391947,-99
1756805816.9425268,-12
1756805816.9435546,20
1756805816.946155,-23
1756805816.9471042,-95
1756805816.9490044,-144
1756805816.9509628,-152
1756805816.9529986,-140
1756805816.9549174,-133
1756805816.9568946,-136
1756805816.9615204,-132
1756805816.9616778,-108
1756805816.9627972,-74
1756805816.9647505,-45
1756805816.9666128,-22
1756805816.9774702,3
1756805816.9783092,30
1756805816.9785538,47
1756805816.9788027,39
1756805816.9789128,11
1756805816.9789617,-24
1756805816.980354,-55
1756805816.9828923,-84
1756805816.9858077,-110
1756805816.9862876,-120
1756805816.9882548,-109
1756805816.9902837,-95
1756805816.9922109,-108
1756805816.994685,-156
1756805816.9963927,-200
1756805816.9980412,-195
1756805817.0003753,-139
1756805817.004542,-97
1756805817.0050669,-123
1756805817.0061493,-208
1756805817.0087433,-278
1756805817.0099847,-270
1756805817.0120163,-201
1756805817.0139368,-143
1756805817.015932,-146
1756805817.0180247,-181
1756805817.0212333,-192
1756805817.0218961,-164
1756805817.0237513,-141
1756805817.0258653,-169
1756805817.027652,-229
1756805817.0297341,-249
1756805817.031678,-199
1756805817.033644,-133
1756805817.0355527,-124
1756805817.0375762,-179
1756805817.0399396,-232
1756805817.0414577,-219
1756805817.0435214,-160
1756805817.046616,-132
1756805817.0475943,-179
1756805817.0493548,-260
1756805817.0513325,-301
1756805817.0532944,-283
1756805817.0552404,-262
1756805817.0574775,-296
1756805817.0590968,-377
1756805817.0725207,-432
1756805817.0728772,-400
1756805817.0730786,-311
1756805817.0732806,-254
1756805817.073733,-295
1756805817.0755825,-391
1756805817.0758355,-429
1756805817.0760617,-351
1756805817.0768442,-236
1756805817.0863907,-217
1756805817.0866847,-326
1756805817.086884,-455
1756805817.0870814,-480
1756805817.0872772,-408
1756805817.0906296,-364
1756805817.0909312,-436
1756805817.0925598,-564
1756805817.0953896,-626
1756805817.0965118,-600
1756805817.0998201,-579
1756805817.1005857,-630
1756805817.103032,-701
1756805817.1046753,-692
1756805817.1064801,-598
1756805817.1091905,-525
1756805817.1102402,-543
1756805817.112553,-606
1756805817.116691,-618
1756805817.1169298,-564
1756805817.1181743,-522
1756805817.120383,-559
1756805817.1221325,-651
1756805817.1243212,-718
1756805817.1266685,-728
1756805817.1279788,-719
1756805817.1306078,-741
1756805817.1375227,-790
1756805817.1378596,-822
1756805817.1380773,-807
1756805817.1382766,-761
1756805817.1397486,-727
1756805817.1418133,-729
1756805817.1450098,-753
1756805817.1456492,-777
1756805817.1476455,-790
1756805817.1495712,-801
1756805817.1516476,-824
1756805817.1535158,-860
1756805817.1554813,-895
1756805817.1574736,-930
1756805817.1594408,-968
1756805817.161347,-1000
1756805817.1636794,-998
1756805817.166475,-949
1756805817.1698675,-883
1756805817.1700823,-845
1756805817.173768,-838
1756805817.1754816,-826
1756805817.1757197,-780
1756805817.177457,-717
1756805817.1793203,-686
1756805817.1825511,-691
1756805817.1831937,-691
1756805817.1849573,-655
1756805817.1875265,-606
1756805817.1889045,-581
1756805817.195588,-577
1756805817.1964834,-553
1756805817.1967673,-489
1756805817.1969764,-419
1756805817.1993175,-386
1756805817.200698,-384
1756805817.205283,-368
1756805817.2055123,-317
1756805817.207298,-263
1756805817.208557,-246
1756805817.2139735,-257
1756805817.214273,-254
1756805817.2144804,-210
1756805817.217331,-140
1756805817.2186363,-82
1756805817.221194,-66
1756805817.2225254,-79
1756805817.2244987,-84
1756805817.2264316,-54
1756805817.2284524,7
1756805817.230345,69
1756805817.2324104,94
1756805817.234245,76
1756805817.23841,44
1756805817.238774,40
1756805817.2421823,79
1756805817.2424123,135
1756805817.246165,173
1756805817.2467637,185
1756805817.2489533,190
1756805817.2499962,200
1756805817.2518332,209
1756805817.2538996,205
1756805817.2558272,191
1756805817.2604625,180
1756805817.2646143,175
1756805817.265206,165
1756805817.2654665,139
1756805817.2656758,117
1756805817.2674978,124
1756805817.2695873,168
1756805817.279753,226
1756805817.2806299,266
1756805817.2812645,279
1756805817.2825084,284
1756805817.2825854,304
1756805817.2826319,330
1756805817.2830572,328
1756805817.2850375,279
1756805817.2875237,205
1756805817.2890875,155
1756805817.291226,157
1756805817.2930648,193
1756805817.2948468,218
1756805817.296913,212
1756805817.2988572,198
1756805817.300888,199
1756805817.3027687,220
1756805817.3046818,238
1756805817.3066485,233
1756805817.3086293,210
1756805817.3117976,179
1756805817.3136978,154
1756805817.3145456,139
1756805817.3165028,135
1756805817.3187819,128
1756805817.3204434,105
1756805817.3224356,69
1756805817.3247197,45
1756805817.3266094,48
1756805817.3285484,63
1756805817.3305657,52
1756805817.3327897,7
1756805817.3342943,-39
1756805817.3364077,-35
1756805817.338395,23
1756805817.3406482,87
1756805817.34223,110
1756805817.3442767,95
1756805817.3460093,87
1756805817.3479795,122
1756805817.3499615,182
1756805817.3518457,207
1756805817.3544364,156
1756805817.3558662,50
1756805817.3578887,-39
1756805817.3597043,-59
1756805817.361676,-31
1756805817.3637013,-22
1756805817.3655884,-56
1756805817.3676984,-80
1756805817.3695748,-30
1756805817.371555,69
1756805817.3734958,133
1756805817.3754654,112
1756805817.384988,55
1756805817.3864553,44
1756805817.3866425,79
1756805817.386801,77
1756805817.386958,-3
1756805817.3876219,-93
1756805817.3894935,-103
1756805817.39203,-35
1756805817.3931723,17
1756805817.3951433,-5
1756805817.3980052,-48
1756805817.3991888,-29
1756805817.4013057,52
1756805817.4032242,112
1756805817.4051223,88
1756805817.406966,8
1756805817.40912,-54
1756805817.4139667,-77
1756805817.4143436,-95
1756805817.4270797,-133
1756805817.4273202,-172
1756805817.427519,-176
1756805817.427715,-150
1756805817.4279106,-125
1756805817.428107,-117
1756805817.4283028,-113
1756805817.4289885,-92
1756805817.456199,-51
1756805817.4565992,-10
1756805817.4668112,9
1756805817.4671516,1
1756805817.4675038,-29
1756805817.4710953,-68
1756805817.4713545,-96
1756805817.471552,-96
1756805817.4717505,-78
1756805817.4719472,-65
1756805817.4721434,-69
1756805817.472341,-80
1756805817.472537,-78
1756805817.472759,-42
1756805817.4757009,22
1756805817.4830606,77
1756805817.4834101,85
1756805817.484526,31
1756805817.484732,-47
1756805817.4849293,-88
1756805817.4851277,-71
1756805817.4853268,-39
1756805817.4856975,-53
1756805817.4860086,-112
1756805817.4862998,-153
1756805817.4887455,-114
1756805817.4891093,-14
1756805817.4893446,62
1756805817.4895537,62
1756805817.4897504,16
1756805817.490043,-11
1756805817.4918497,9
1756805817.4935753,38
1756805817.4955366,32
1756805817.4975204,-18
1756805817.5008528,-82
1756805817.5094054,-133
1756805817.5273376,-164
1756805817.5277014,-171
1756805817.5279028,-141
1756805817.5280979,-87
1756805817.5282924,-42
1756805817.528539,-34
1756805817.5287442,-52
1756805817.5289414,-54
1756805817.5291378,-21
1756805817.5293565,28
1756805817.5295537,54
1756805817.529748,46
1756805817.5299425,24
1756805817.530137,3
1756805817.53092,-25
1756805817.532918,-54
1756805817.5395403,-57
1756805817.5398166,-15
1756805817.5400307,41
1756805817.5426285,50
1756805817.542839,-4
1756805817.5499191,-58
1756805817.5503883,-37
1756805817.5505898,48
1756805817.5507858,98
1756805817.5525677,39
1756805817.5546167,-89
1756805817.5566137,-161
1756805817.558474,-112
1756805817.560495,-8
1756805817.5636275,37
1756805817.5662951,-14
1756805817.5666518,-82
1756805817.5780034,-79
1756805817.578521,3
1756805817.5789702,88
1756805817.5791705,102
1756805817.57983,36
1756805817.5800343,-52
1756805817.5802314,-100
1756805817.5828362,-88
1756805817.5929682,-47
1756805817.5932195,-23
1756805817.5934637,-39
1756805817.5937278,-79
1756805817.5940626,-107
1756805817.6072493,-97
1756805817.6074913,-57
1756805817.6076913,-9
1756805817.6078877,26
1756805817.608084,32
1756805817.6082802,8
1756805817.6084769,-37
1756805817.6086755,-82
1756805817.617642,-101
1756805817.619364,-94
1756805817.6197414,-91
1756805817.620082,-127
1756805817.6204214,-204
1756805817.6207614,-278
1756805817.6258783,-300
1756805817.6273565,-260
1756805817.62779,-200
1756805817.6280026,-166
1756805817.6292303,-165
1756805817.6311655,-164
1756805817.6353598,-137
1756805817.6362846,-107
1756805817.637188,-111
1756805817.639442,-151
1756805817.6410055,-177
1756805817.6665308,-159
1756805817.6675954,-139
1756805817.6681597,-184
1756805817.6685927,-299
1756805817.6687942,-401
1756805817.6689918,-405
1756805817.6693368,-324
1756805817.6696615,-264
1756805817.669953,-304
1756805817.670154,-407
1756805817.670353,-462
1756805817.6834517,-415
1756805817.7052147,-318
1756805817.7058244,-259
1756805817.7060676,-278
1756805817.706347,-332
1756805817.7065449,-358
1756805817.7067416,-337
1756805817.706938,-295
1756805817.707133,-266
1756805817.7073267,-259
1756805817.7075205,-259
1756805817.707717,-251
1756805817.707912,-232
1756805817.7081068,-211
1756805817.7083025,-200
1756805817.7084966,-198
1756805817.7118218,-193
1756805817.7121968,-183
1756805817.7124095,-177
1756805817.7129276,-193
1756805817.7132626,-224
1756805817.7134745,-237
1756805817.7138994,-213
1756805817.714245,-176
1756805817.7165427,-175
1756805817.7168152,-219
1756805817.7171583,-248
1756805817.7333014,-200
1756805817.7396486,-95
1756805817.7655206,-29
1756805817.7657883,-71
1756805817.7675095,-167
1756805817.7679987,-198
1756805817.7688906,-113
1756805817.7690911,-3
1756805817.7693093,0
1756805817.769504,-111
1756805817.7698805,-219
1756805817.770082,-215
1756805817.770277,-127
1756805817.7704742,-78
1756805817.7706711,-136
1756805817.7708657,-244
1756805817.7710621,-288
1756805817.7712564,-240
1756805817.771452,-176
1756805817.771646,-181
1756805817.77184,-244
1756805817.7720354,-284
1756805817.772379,-251
1756805817.7726393,-184
1756805817.7765558,-152
1756805817.7771099,-171
1756805817.7776065,-190
1756805817.7778084,-163
1756805817.7780046,-116
1756805817.7782028,-105
1756805817.7784054,-146
1756805817.778666,-199
1756805817.78071,-229
1756805817.7824287,-246
1756805817.7852232,-282
1756805817.824126,-335
1756805817.831177,-366
1756805817.8522172,-353
1756805817.864407,-316
1756805817.8646655,-281
1756805817.8648875,-252
1756805817.8651083,-224
1756805817.865842,-214
1756805817.8698428,-247
1756805817.8703477,-312
1756805817.8705509,-375
1756805817.8707657,-426
1756805817.870962,-494
1756805817.871158,-608
1756805817.8713515,-751
1756805817.871547,-881
1756805817.8718204,-995
1756805817.8720188,-1131
1756805817.8724823,-1302
1756805817.8734148,-1461
1756805817.876744,-1556
1756805817.8793945,-1602
1756805817.8796167,-1662
1756805817.8798134,-1751
1756805817.880009,-1796
1756805817.8802037,-1715
1756805817.8804386,-1510
1756805817.8806381,-1267
1756805817.880834,-1068
1756805817.8813248,-919
1756805817.8815255,-770
1756805817.8817208,-576
1756805817.881917,-354
1756805817.8821137,-166
1756805817.882309,-73
1756805817.8825035,-88
1756805817.8827295,-146
1756805817.882927,-163
1756805817.8831224,-117
1756805817.883319,-69
1756805817.8835146,-101
1756805817.883784,-210
1756805817.8839815,-299
1756805817.8841774,-293
1756805817.8849628,-222
1756805817.8851652,-189
1756805817.885361,-239
1756805817.8855565,-309
1756805817.8857503,-317
1756805817.88597,-266
1756805817.8861663,-225
1756805817.8865948,-234
1756805817.8885164,-258
1756805817.8906236,-251
1756805817.8924937,-230
1756805817.894453,-256
1756805817.896608,-330
1756805817.9214067,-376
1756805817.936146,-331
1756805817.9363704,-225
1756805817.936722,-167
1756805817.9369428,-213
1756805817.9375145,-305
1756805817.9377167,-342
1756805817.937914,-296
1756805817.9381096,-237
1756805817.938306,-246
1756805817.9385026,-317
1756805817.9386983,-386
1756805817.9388952,-400
1756805817.9390905,-369
1756805817.9393098,-337
1756805817.9395099,-322
1756805817.9628203,-308
1756805817.9663603,-285
1756805817.9666295,-267
1756805817.9668322,-272
1756805817.9670873,-307
1756805817.9672878,-353
1756805817.967484,-393
1756805817.9676793,-413
1756805817.967874,-413
1756805817.9680703,-404
1756805817.9682648,-403
1756805817.9684615,-421
1756805817.9686577,-438
1756805817.9688532,-425
1756805817.9701536,-380
1756805817.9703524,-337
1756805817.9705477,-336
1756805817.9731684,-384
1756805817.9735615,-447
1756805817.9737642,-497
1756805817.9739609,-532
1756805817.974157,-553
1756805817.9748619,-544
1756805817.9750621,-500
1756805817.9925618,-450
1756805817.9930587,-443
1756805817.9932675,-481
1756805817.9935102,-506
1756805817.9983044,-470
1756805817.9985414,-406
1756805817.9987397,-396
1756805817.9989367,-475
1756805818.0007637,-579
1756805818.0012157,-618
1756805818.0014288,-574
1756805818.001626,-506
1756805818.0018308,-472
1756805818.002786,-477
1756805818.0045457,-485
1756805818.0065153,-476
1756805818.0084805,-464
1756805818.0211687,-458
1756805818.022267,-449
1756805818.0225682,-429
1756805818.0228252,-415
1756805818.023325,-433
1756805818.0238411,-481
1756805818.0243266,-520
1756805818.0245264,-516
1756805818.0285163,-479
1756805818.028776,-451
1756805818.0302567,-465
1756805818.0325322,-509
1756805818.03415,-547
1756805818.0363545,-568
1756805818.0382004,-601
1756805818.0403752,-658
1756805818.0505016,-718
1756805818.0507529,-745
1756805818.051143,-747
1756805818.054466,-770
1756805818.0546956,-836
1756805818.0550795,-898
1756805818.0552793,-882
1756805818.0574255,-789
1756805818.0576441,-700
1756805818.059685,-693
1756805818.0616329,-743
1756805818.0637598,-769
1756805818.065552,-730
1756805818.0694273,-674
1756805818.0696719,-661
1756805818.0714345,-685
1756805818.0735986,-690
1756805818.077348,-658
1756805818.0775743,-649
1756805818.0792947,-717
1756805818.0812805,-829
1756805818.0852776,-888
1756805818.0855014,-850
1756805818.090099,-779
1756805818.093388,-786
1756805818.0941377,-905
1756805818.096425,-1055
1756805818.0966423,-1115
1756805818.0982654,-1044
1756805818.099098,-920
1756805818.1009417,-855
1756805818.103128,-894
1756805818.1049387,-978
1756805818.1067834,-1017
1756805818.1088123,-977
1756805818.1143668,-903
1756805818.1153448,-866
1756805818.1155531,-882
1756805818.1187634,-918
1756805818.119294,-937
1756805818.1213143,-937
1756805818.1224837,-940
1756805818.1261165,-936
1756805818.126515,-891
1756805818.1283944,-805
1756805818.1303816,-726
1756805818.1325204,-706
1756805818.1343403,-734
1756805818.137433,-743
1756805818.1382287,-688
1756805818.1406367,-600
1756805818.142186,-536
1756805818.1453638,-516
1756805818.146132,-514
1756805818.148076,-500
1756805818.1501627,-485
1756805818.1522171,-487
1756805818.1539817,-502
1756805818.1560037,-506
1756805818.1581097,-490
1756805818.160008,-470
1756805818.1624875,-459
1756805818.1639097,-451
1756805818.1673584,-424
1756805818.1677234,-373
1756805818.174356,-300
1756805818.1746058,-207
1756805818.1748037,-108
1756805818.175613,-32
1756805818.1787863,3
1756805818.1796587,10
1756805818.1815977,26
1756805818.1850615,60
1756805818.1855128,76
1756805818.1874604,38
1756805818.189836,-35
1756805818.1912556,-80
1756805818.1936061,-57
1756805818.1952362,-6
1756805818.19727,6
1756805818.211086,-33
1756805818.2113428,-65
1756805818.2115402,-26
1756805818.211735,71
1756805818.212027,143
1756805818.2139702,134
1756805818.2141757,75
1756805818.2164404,53
1756805818.2166464,103
1756805818.2168422,170
1756805818.2196763,168
1756805818.2207131,88
1756805818.222837,18
1756805818.2247458,37
1756805818.2280433,126
1756805818.2286067,185
1756805818.233214,143
1756805818.2334228,43
1756805818.2346048,-4
1756805818.2365615,53
1756805818.238545,154
1756805818.240607,198
1756805818.2425628,151
1756805818.2448823,78
1756805818.2465158,54
1756805818.2484424,82
1756805818.2503495,100
1756805818.2524502,67
1756805818.2576756,5
1756805818.2581604,-38
1756805818.258364,-47
1756805818.2601743,-56
1756805818.2632153,-85
1756805818.2835798,-108
1756805818.283899,-92
1756805818.2841766,-43
1756805818.284452,-5
1756805818.2847216,-7
1756805818.284992,-23
1756805818.2853205,-23
1756805818.2899137,-8
1756805818.2907143,-13
1756805818.290998,-59
1756805818.2912934,-118
1756805818.294326,-146
1756805818.2967598,-131
1756805818.297092,-107
1756805818.2998207,-109
1756805818.300769,-140
1756805818.3010926,-179
1756805818.3013518,-203
1756805818.3015485,-204
1756805818.3017445,-183
1756805818.303426,-157
1756805818.3053281,-160
1756805818.3072789,-212
1756805818.3094392,-284
1756805818.311395,-315
1756805818.3132012,-274
1756805818.3449268,-203
1756805818.34542,-182
1756805818.3456233,-235
1756805818.3460853,-306
1756805818.3463655,-323
1756805818.346566,-280
1756805818.3467617,-254
1756805818.3472927,-298
1756805818.3478067,-371
1756805818.3519483,-386
1756805818.352171,-325
1756805818.3523705,-275
1756805818.352568,-317
1756805818.3527915,-419
1756805818.3529882,-471
1756805818.3531837,-416
1756805818.353381,-331
1756805818.353577,-328
1756805818.3537745,-427
1756805818.3540592,-526
1756805818.3555791,-525
1756805818.356498,-441
1756805818.3587282,-375
1756805818.360646,-380
1756805818.364776,-414
1756805818.365399,-417
1756805818.3661613,-389
1756805818.3681414,-378
1756805818.370878,-404
1756805818.3727548,-432
1756805818.3749468,-434
1756805818.376006,-427
1756805818.377886,-452
1756805818.3798614,-508
1756805818.3818676,-553
1756805818.3846579,-555
1756805818.3862216,-518
1756805818.3876846,-477
1756805818.3896399,-459
1756805818.3916063,-472
1756805818.3935547,-503
1756805818.3955095,-532
1756805818.3974812,-535
1756805818.3995645,-504
1756805818.4018404,-471
1756805818.4034882,-475
1756805818.4094267,-515
1756805818.4096718,-551
1756805818.4098551,-550
1756805818.411364,-524
1756805818.41337,-510
1756805818.4154685,-512
1756805818.4175277,-507
1756805818.4192157,-478
1756805818.4235682,-455
1756805818.4238195,-468
1756805818.4254837,-512
1756805818.4270484,-542
1756805818.4289427,-529
1756805818.4312377,-489
1756805818.433092,-467
1756805818.4350882,-483
1756805818.4385395,-517
1756805818.4556847,-542
1756805818.4568098,-543
1756805818.4573076,-522
1756805818.4599845,-497
1756805818.4602203,-489
1756805818.4816465,-508
1756805818.4830759,-545
1756805818.4833364,-573
1756805818.4835384,-574
1756805818.4838357,-556
1756805818.4840424,-543
1756805818.4842384,-553
1756805818.4844346,-580
1756805818.4846299,-605
1756805818.4848263,-616
1756805818.4850225,-602
1756805818.493647,-571
1756805818.4939823,-547
1756805818.4941988,-556
1756805818.494396,-597
1756805818.4945917,-628
1756805818.4947906,-615
1756805818.4949875,-568
1756805818.4951851,-537
1756805818.4953825,-545
1756805818.4955797,-566
1756805818.495784,-557
1756805818.4960086,-521
1756805818.4962068,-493
1756805818.4964023,-499
1756805818.4979455,-520
1756805818.4998436,-528
1756805818.5075576,-527
1756805818.507795,-546
1756805818.5079982,-588
1756805818.5082798,-620
1756805818.5097299,-605
1756805818.512062,-548
1756805818.5156496,-486
1756805818.5160115,-451
1756805818.5175622,-444
1756805818.5206091,-443
1756805818.521599,-428
1756805818.5235643,-397
1756805818.527508,-372
1756805818.5279903,-383
1756805818.5294733,-438
1756805818.531422,-509
1756805818.533468,-564
1756805818.5353034,-580
1756805818.5372803,-570
1756805818.5392845,-558
1756805818.5412958,-564
1756805818.5431828,-587
1756805818.5452404,-613
1756805818.5472066,-622
1756805818.549014,-602
1756805818.5519361,-570
1756805818.5530088,-550
1756805818.5549595,-551
1756805818.556861,-543
1756805818.5618865,-500
1756805818.5621157,-441
1756805818.562845,-422
1756805818.5647218,-473
1756805818.5668027,-544
1756805818.5686152,-569
1756805818.5706987,-539
1756805818.572826,-524
1756805818.5802047,-571
1756805818.5811849,-643
1756805818.5813947,-661
1756805818.5815914,-604
1756805818.5824702,-534
1756805818.584618,-516
1756805818.5864372,-554
1756805818.5908453,-605
1756805818.5913289,-638
1756805818.6002297,-657
1756805818.602296,-671
1756805818.6027267,-682
1756805818.6035533,-701
1756805818.6039171,-743
1756805818.6051736,-798
1756805818.6054482,-827
1756805818.6074836,-780
1756805818.6080313,-683
1756805818.610075,-616
1756805818.613056,-626
1756805818.61868,-684
1756805818.618931,-717
1756805818.6245093,-691
1756805818.624748,-645
1756805818.6249483,-626
1756805818.6251445,-641
1756805818.6256723,-659
1756805818.6277196,-661
1756805818.6296363,-654
1756805818.6507413,-641
1756805818.6513488,-613
1756805818.6515818,-568
1756805818.6517825,-538
1756805818.6519802,-551
1756805818.6521773,-592
1756805818.652563,-605
1756805818.6527863,-565
1756805818.6529841,-506
1756805818.65318,-494
1756805818.6550062,-538
1756805818.656045,-579
1756805818.6567411,-561
1756805818.6571302,-499
1756805818.6608667,-459
1756805818.6615932,-479
1756805818.6646774,-513
1756805818.6650467,-495
1756805818.6674304,-420
1756805818.669075,-362
1756805818.6709273,-380
1756805818.6728632,-443
1756805818.6747515,-475
1756805818.6768148,-438
1756805818.67883,-382
1756805818.680728,-376
1756805818.6827223,-412
1756805818.6848898,-425
1756805818.6866415,-369
1756805818.6909235,-285
1756805818.6913257,-248
1756805818.6997225,-283
1756805818.6999643,-343
1756805818.700167,-375
1756805818.7005692,-383
1756805818.700768,-411
1756805818.702227,-468
1756805818.7045887,-516
1756805818.7063038,-522
1756805818.7082675,-495
1756805818.7147665,-466
1756805818.715212,-445
1756805818.7154336,-401
1756805818.7161233,-318
1756805818.7181094,-240
1756805818.720098,-228
1756805818.7220805,-287
1756805818.7240062,-355
1756805818.7287097,-382
1756805818.728949,-376
1756805818.7298942,-380
1756805818.7318892,-409
1756805818.7338495,-433
1756805818.736266,-434
1756805818.737735,-427
1756805818.7406168,-425
1756805818.7417161,-399
1756805818.7647917,-329
1756805818.765672,-260
1756805818.767937,-271
1756805818.7689652,-378
1756805818.7714815,-486
1756805818.7729237,-503
1756805818.7732296,-463
1756805818.773432,-495
1756805818.773644,-669
1756805818.773842,-906
1756805818.7744904,-1075
1756805818.7747018,-1145
1756805818.7751448,-1206
1756805818.7753432,-1333
1756805818.7755485,-1500
1756805818.7757452,-1634
1756805818.77623,-1711
1756805818.7770987,-1763
1756805818.7803898,-1785
1756805818.7809272,-1731
1756805818.7831752,-1579
1756805818.7849185,-1381
1756805818.7870872,-1221
1756805818.788745,-1113
1756805818.791031,-986
1756805818.7952006,-794
1756805818.7959473,-582
1756805818.7972226,-438
1756805818.8009186,-390
1756805818.8013415,-382
1756805818.802541,-343
1756805818.8107054,-276
1756805818.8229434,-241
1756805818.823208,-275
1756805818.8235767,-339
1756805818.8237727,-370
1756805818.823969,-350
1756805818.824165,-315
1756805818.824361,-312
1756805818.8245566,-341
1756805818.8247507,-367
1756805818.824947,-374
1756805818.8261528,-362
1756805818.828136,-341
1756805818.8301582,-319
1756805818.8320549,-305
1756805818.8341477,-313
1756805818.8361907,-352
1756805818.8379009,-394
1756805818.840563,-392
1756805818.8419363,-328
1756805818.843983,-248
1756805818.8459566,-216
1756805818.8483868,-264
1756805818.8498564,-345
1756805818.8517566,-384
1756805818.8536758,-348
1756805818.8556533,-283
1756805818.8576572,-265
1756805818.8712847,-322
1756805818.8716052,-408
1756805818.8718092,-452
1756805818.872009,-419
1756805818.8722942,-350
1756805818.8725474,-314
1756805818.87277,-328
1756805818.873441,-359
1756805818.8754077,-360
1756805818.877225,-318
1756805818.8791723,-271
1756805818.8817904,-261
1756805818.8839386,-299
1756805818.885133,-355
1756805818.8871176,-397
1756805818.889072,-418
1756805818.8910363,-428
1756805818.8930802,-440
1756805818.8949795,-450
1756805818.8969476,-449
1756805818.898902,-440
1756805818.900995,-447
1756805818.9054198,-479
1756805818.9056275,-511
1756805818.9067097,-505
1756805818.9086754,-459
1756805818.910808,-428
1756805818.9168057,-458
1756805818.9170585,-533
1756805818.917257,-574
1756805818.9186006,-541
1756805818.9204774,-474
1756805818.9225624,-445
1756805818.924465,-476
1756805818.9264925,-516
1756805818.9283974,-512
1756805818.9303637,-474
1756805818.9323764,-441
1756805818.934412,-430
1756805818.936469,-418
1756805818.9381115,-399
1756805818.9402587,-392
1756805818.9421718,-414
1756805818.9440994,-457
1756805818.9461424,-488
1756805818.9480884,-499
1756805818.9500415,-506
1756805818.9520252,-528
1756805818.9539406,-562
1756805818.9559026,-585
1756805818.958366,-584
1756805818.961877,-563
1756805818.9621596,-538
1756805818.9637141,-529
1756805818.965736,-542
1756805818.967759,-550
1756805818.970686,-532
1756805818.9715848,-498
1756805818.9736164,-495
1756805818.9756808,-543
1756805818.977672,-604
1756805818.9796698,-619
1756805818.9815292,-588
1756805818.9834278,-573
1756805818.9853706,-627
1756805818.9878366,-711
1756805818.9896538,-740
1756805818.9916754,-692
1756805818.9932847,-644
1756805818.9952297,-676
1756805818.998096,-770
1756805818.9991937,-828
1756805819.0012984,-796
1756805819.0032105,-726
1756805819.0083969,-724
1756805819.0092752,-810
1756805819.0138345,-902
1756805819.0242276,-907
1756805819.0309386,-827
1756805819.0341494,-753
1756805819.0344727,-758
1756805819.037627,-823
1756805819.0453,-869
1756805819.0457752,-852
1756805819.0462308,-806
1756805819.0465581,-791
1756805819.0475035,-822
1756805819.0477028,-864
1756805819.0478992,-891
1756805819.048095,-908
1756805819.048291,-920
1756805819.0484867,-906
1756805819.0486827,-859
1756805819.0488794,-821
1756805819.0494943,-851
1756805819.049702,-950
1756805819.0498977,-1036
1756805819.0501478,-1030
1756805819.0521512,-955
1756805819.0542107,-913
1756805819.0560884,-973
1756805819.0580893,-1079
1756805819.062302,-1120
1756805819.062564,-1049
1756805819.06399,-931
1756805819.0660813,-861
1756805819.0679197,-866
1756805819.0699148,-902
1756805819.071865,-913
1756805819.073997,-884
1756805819.0758724,-842
1756805819.0778623,-806
1756805819.079814,-778
1756805819.081761,-755
1756805819.0837278,-737
1756805819.0855355,-712
1756805819.0877132,-668
1756805819.0902514,-592
1756805819.0914795,-497
1756805819.0934768,-424
1756805819.0964978,-400
1756805819.097426,-416
1756805819.0998588,-430
1756805819.1012957,-411
1756805819.1033547,-367
1756805819.107487,-334
1756805819.107718,-331
1756805819.111535,-341
1756805819.111796,-331
1756805819.113951,-288
1756805819.1155753,-233
1756805819.1348913,-204
1756805819.1360884,-205
1756805819.1362863,-209
1756805819.136446,-181
1756805819.13661,-113
1756805819.1367648,-37
1756805819.1369193,7
1756805819.137072,6
1756805819.1372254,-11
1756805819.1373782,-11
1756805819.137531,11
1756805819.1388156,35
1756805819.140714,46
1756805819.1425624,60
1756805819.144622,96
1756805819.1466317,139
1756805819.15017,148
1756805819.1506255,112
1756805819.1523354,73
1756805819.1542726,81
1756805819.1562877,125
1756805819.1588516,135
1756805819.1601923,67
1756805819.162081,-30
1756805819.1644092,-67
1756805819.1660428,-12
1756805819.1679733,66
1756805819.1701937,83
1756805819.172034,44
1756805819.1741536,35
1756805819.1761286,100
1756805819.1780844,181
1756805819.1934981,187
1756805819.1942034,106
1756805819.194388,30
1756805819.1945453,40
1756805819.196208,114
1756805819.1973705,157
1756805819.197434,108
1756805819.1975043,16
1756805819.1975632,-20
1756805819.1976218,36
1756805819.199483,123
1756805819.20177,150
1756805819.214126,94
1756805819.2142255,9
1756805819.2142804,-41
1756805819.2143276,-41
1756805819.2144458,-22
1756805819.2146397,-23
1756805819.2159445,-45
1756805819.2171648,-64
1756805819.2195938,-64
1756805819.2214437,-48
1756805819.2231243,-40
1756805819.2251544,-60
1756805819.2271352,-103
1756805819.2289808,-146
1756805819.231248,-158
1756805819.2330668,-125
1756805819.234978,-72
1756805819.2371454,-38
1756805819.24298,-38
1756805819.2431102,-50
1756805819.2431555,-38
1756805819.24504,-10
1756805819.2466352,-4
1756805819.2486115,-46
1756805819.2505257,-111
1756805819.2534115,-161
1756805819.254533,-188
1756805819.2564797,-218
1756805819.2584546,-263
1756805819.2604125,-302
1756805819.2631614,-301
1756805819.2643383,-267
1756805819.2665946,-234
1756805819.2686744,-222
1756805819.2704449,-216
1756805819.2723854,-201
1756805819.2746704,-194
1756805819.2762537,-211
1756805819.2781394,-237
1756805819.2800958,-245
1756805819.2820466,-233
1756805819.2840297,-232
1756805819.285992,-255
1756805819.2879536,-278
1756805819.2899072,-271
1756805819.2918751,-247
1756805819.2938209,-250
1756805819.2958407,-297
1756805819.2979403,-353
1756805819.300814,-374
1756805819.3018367,-364
1756805819.3040128,-364
1756805819.3057642,-394
1756805819.3079123,-424
1756805819.3097348,-415
1756805819.3117232,-361
1756805819.3138452,-300
1756805819.315709,-278
1756805819.3177843,-298
1756805819.3195899,-330
1756805819.3217993,-338
1756805819.325108,-310
1756805819.3254673,-274
1756805819.3275688,-263
1756805819.3294358,-292
1756805819.3313575,-338
1756805819.3333502,-366
1756805819.3352354,-366
1756805819.337325,-348
1756805819.3392038,-333
1756805819.342158,-335
1756805819.3432183,-358
1756805819.3451018,-396
1756805819.3471444,-425
1756805819.3491008,-421
1756805819.350986,-388
1756805819.3530588,-366
1756805819.3560975,-397
1756805819.356837,-462
1756805819.358757,-487
1756805819.3608005,-422
1756805819.3627222,-303
1756805819.364733,-224
1756805819.3678334,-241
1756805819.3686447,-310
1756805819.3709779,-338
1756805819.3725436,-288
1756805819.3750098,-221
1756805819.3765762,-227
1756805819.3785126,-330
1756805819.3804321,-458
1756805819.3825355,-511
1756805819.3844345,-473
1756805819.3864026,-417
1756805819.3884144,-413
1756805819.3903391,-464
1756805819.3922255,-505
1756805819.3942802,-486
1756805819.3963253,-422
1756805819.3981605,-367
1756805819.4001155,-343
1756805819.4024775,-328
1756805819.4043794,-309
1756805819.4059968,-301
1756805819.4086275,-325
1756805819.4100342,-369
1756805819.4142058,-396
1756805819.4148862,-382
1756805819.4173412,-348
1756805819.4179137,-335
1756805819.4197268,-359
1756805819.4218163,-406
1756805819.4236314,-445
1756805819.4274526,-445
1756805819.42769,-404
1756805819.4295993,-356
1756805819.4315968,-340
1756805819.4335196,-365
1756805819.4354427,-392
1756805819.4374747,-383
1756805819.4394274,-347
1756805819.4413724,-341
1756805819.4433618,-391
1756805819.4453015,-443
1756805819.44729,-425
1756805819.449259,-343
1756805819.4511955,-289
1756805819.453708,-333
1756805819.4561872,-431
1756805819.4636705,-474
1756805819.464114,-417
1756805819.4643178,-344
1756805819.4645133,-360
1756805819.464955,-463
1756805819.4675965,-544
1756805819.4688828,-521
1756805819.47086,-436
1756805819.4728732,-388
1756805819.474972,-406
1756805819.4768677,-415
1756805819.4787238,-357
1756805819.481992,-279
1756805819.482713,-286
1756805819.4846423,-395
1756805819.486527,-498
1756805819.488593,-491
1756805819.4905548,-393
1756805819.492468,-327
1756805819.4944391,-370
1756805819.4963613,-458
1756805819.4994133,-466
1756805819.500403,-353
1756805819.5023181,-210
1756805819.5043824,-157
1756805819.507893,-213
1756805819.5081387,-292
1756805819.51522,-323
1756805819.5158055,-323
1756805819.5175133,-359
1756805819.5177965,-457
1756805819.5180025,-560
1756805819.5200696,-602
1756805819.522505,-580
1756805819.53896,-547
1756805819.5447803,-535
1756805819.5467553,-520
1756805819.5473514,-472
1756805819.547555,-410
1756805819.547751,-383
1756805819.5479481,-401
1756805819.5492904,-424
1756805819.550582,-411
1756805819.5517378,-379
1756805819.5521507,-376
1756805819.5523474,-412
1756805819.553303,-453
1756805819.5535,-485
1756805819.5536962,-536
1756805819.5538902,-620
1756805819.5558858,-684
1756805819.5580869,-660
1756805819.5614448,-567
1756805819.5618277,-512
1756805819.5632277,-566
1756805819.5675461,-663
1756805819.5680935,-664
1756805819.5691679,-533
1756805819.5713608,-391
1756805819.5731976,-370
1756805819.575096,-460
1756805819.5788372,-538
1756805819.5802321,-525
1756805819.581822,-479
1756805819.5828857,-493
1756805819.5851886,-565
1756805819.5869915,-609
1756805819.5890534,-576
1756805819.5907435,-525
1756805819.5927567,-538
1756805819.5949287,-599
1756805819.596713,-611
1756805819.5987086,-520
1756805819.6005645,-389
1756805819.6039577,-322
1756805819.6044989,-346
1756805819.6065645,-397
1756805819.6143665,-397
1756805819.6146014,-348
1756805819.6148,-306
1756805819.6149957,-307
1756805819.6164339,-327
1756805819.6185172,-317
1756805819.6204863,-270
1756805819.6222882,-223
1756805819.6242063,-212
1756805819.626165,-233
1756805819.6281497,-254
1756805819.6301188,-255
1756805819.6320472,-240
1756805819.6340501,-229
1756805819.6360002,-231
1756805819.6390638,-240
1756805819.6399634,-249
1756805819.6418633,-253
1756805819.6441646,-242
1756805819.646299,-207
1756805819.6478496,-161
1756805819.6509972,-137
1756805819.651637,-148
1756805819.653778,-169
1756805819.6616988,-168
1756805819.6619349,-146
1756805819.6621315,-145
1756805819.6623304,-189
1756805819.6635377,-242
1756805819.6654892,-247
1756805819.6676254,-194
1756805819.6727364,-132
1756805819.6729653,-105
1756805819.6740482,-111
1756805819.6751704,-103
1756805819.677224,-67
1756805819.679352,-34
1756805819.681142,-44
1756805819.6925066,-95
1756805819.692982,-152
1756805819.693186,-190
1756805819.6933825,-220
1756805819.6935782,-252
1756805819.694139,-265
1756805819.6950526,-238
1756805819.696937,-182
1756805819.6988137,-138
1756805819.7008727,-135
1756805819.702707,-155
1756805819.704802,-166
1756805819.7067606,-155
1756805819.7146611,-145
1756805819.7149189,-155
1756805819.715118,-181
1756805819.7153141,-211
1756805819.716742,-243
1756805819.7187219,-289
1756805819.72058,-344
1756805819.722529,-394
1756805819.7244396,-436
1756805819.7265172,-498
1756805819.7284234,-610
1756805819.7304661,-775
1756805819.732483,-959
1756805819.7343328,-1128
1756805819.736261,-1279
1756805819.7382083,-1432
1756805819.740234,-1582
1756805819.7427533,-1687
1756805819.7441435,-1702
1756805819.7462327,-1628
1756805819.748259,-1521
1756805819.750043,-1417
1756805819.7519689,-1292
1756805819.7538898,-1103
1756805819.7558775,-858
1756805819.7581584,-635
1756805819.7677364,-500
1756805819.768293,-430
1756805819.7685015,-344
1756805819.768698,-201
1756805819.7688932,-57
1756805819.7696047,10
1756805819.7716272,-8
1756805819.7761607,-44
1756805819.7764606,-40
1756805819.7779813,-26
1756805819.7794995,-66
1756805819.781559,-158
1756805819.7840858,-245
1756805819.7852683,-284
1756805819.7876565,-295
1756805819.795812,-326
1756805819.7963843,-373
1756805819.796778,-391
1756805819.796938,-359
1756805819.7970934,-314
1756805819.7999985,-303
1756805819.8020437,-323
1756805819.8029165,-322
1756805819.804858,-271
1756805819.8069568,-204
1756805819.8088157,-175
1756805819.8114073,-196
1756805819.8128586,-234
1756805819.818241,-255
1756805819.8243155,-262
1756805819.8243904,-276
1756805819.824445,-302
1756805819.8244967,-329
1756805819.8295603,-351
1756805819.8297641,-370
1756805819.8299563,-377
1756805819.8306248,-360
1756805819.8329866,-324
1756805819.834408,-304
1756805819.8364606,-325
1756805819.8384314,-362
1756805819.8404355,-375
1756805819.8430674,-357
1756805819.8447757,-349
1756805819.846266,-370
1756805819.848822,-391
1756805819.8501318,-369
1756805819.852095,-318
1756805819.8540442,-288
1756805819.8559685,-291
1756805819.8579342,-280
1756805819.8599317,-215
1756805819.8622494,-137
1756805819.8638232,-132
1756805819.865813,-236
1756805819.8677442,-376
1756805819.8697276,-457
1756805819.8716323,-464
1756805819.87361,-464
1756805819.8755856,-512
1756805819.8778415,-579
1756805819.8795521,-584
1756805819.881516,-496
1756805819.8834686,-367
1756805819.8854406,-274
1756805819.8879821,-246
1756805819.889465,-255
1756805819.8914618,-261
1756805819.8933961,-259
1756805819.8953726,-264
1756805819.8983727,-276
1756805819.899226,-288
1756805819.9012864,-306
1756805819.9031699,-346
1756805819.905336,-395
1756805819.9070935,-415
1756805819.9090726,-388
1756805819.9109876,-352
1756805819.9138925,-365
1756805819.9149878,-430
1756805819.9168594,-482
1756805819.9188197,-470
1756805819.920877,-428
1756805819.9228191,-426
1756805819.9247255,-476
1756805819.9271483,-507
1756805819.9286819,-467
1756805819.9310577,-395
1756805819.9326355,-378
1756805819.9346359,-438
1756805819.9366844,-503
1756805819.9384794,-503
1756805819.940474,-455
1756805819.9424307,-428
1756805819.9446156,-454
1756805819.9463239,-499
1756805819.948381,-512
1756805819.9505315,-482
1756805819.952504,-438
1756805819.9543428,-412
1756805819.9586098,-416
1756805819.965598,-438
1756805819.9661925,-461
1756805819.9663622,-474
1756805819.9665518,-483
1756805819.9667065,-505
1756805819.9680982,-542
1756805819.9702168,-577
1756805819.9722188,-593
1756805819.9741762,-599
1756805819.9761994,-622
1756805819.978563,-666
1756805819.9800842,-687
1756805819.9819608,-648
1756805819.984857,-576
1756805819.985673,-543
1756805819.9876432,-578
1756805819.9896388,-629
1756805819.9917188,-630
1756805819.993498,-589
1756805819.9955285,-581
1756805819.9974897,-652
1756805819.9994311,-754
1756805820.0013893,-800
1756805820.0033662,-775
1756805820.0052767,-747
1756805820.0072465,-776
1756805820.0092943,-834
1756805820.014017,-843
1756805820.0141685,-776
1756805820.015142,-689
1756805820.01719,-649
1756805820.0190673,-653
1756805820.0213737,-652
1756805820.0232556,-618
1756805820.0253348,-590
1756805820.0271337,-619
1756805820.029108,-703
1756805820.030946,-785
1756805820.0330703,-803
1756805820.0349553,-750
1756805820.0369968,-681
1756805820.0390074,-653
1756805820.040896,-669
1756805820.042857,-677
1756805820.044669,-618
1756805820.0466995,-506
1756805820.048586,-410
1756805820.0505319,-388
1756805820.052505,-418
1756805820.055545,-416
1756805820.056528,-336
1756805820.058457,-224
1756805820.0603552,-167
1756805820.063729,-195
1756805820.065859,-244
1756805820.0662816,-241
1756805820.0681999,-183
1756805820.070143,-120
1756805820.0721793,-86
1756805820.0740817,-68
1756805820.076131,-34
1756805820.0779977,17
1756805820.080856,67
1756805820.0819309,113
1756805820.0840666,163
1756805820.087078,212
1756805820.0881035,242
1756805820.0899973,247
1756805820.0919964,251
1756805820.0942845,279
1756805820.0960212,317
1756805820.0981646,331
1756805820.100039,307
1756805820.1018403,277
1756805820.1040142,274
1756805820.1057847,300
1756805820.1076374,333
1756805820.1103137,352
1756805820.114663,359
1756805820.1147537,363
1756805820.1153603,360
1756805820.117357,349
1756805820.1194887,347
1756805820.1213772,366
1756805820.1237376,394
1756805820.1256533,404
1756805820.127209,387
1756805820.1292315,368
1756805820.1310894,376
1756805820.1344419,407
1756805820.1350126,431
1756805820.1370652,421
1756805820.1389887,385
1756805820.1409655,355
1756805820.1430006,350
1756805820.1451147,374
1756805820.1468425,411
1756805820.1488187,432
1756805820.1508095,419
1756805820.1527104,383
1756805820.1548543,357
1756805820.1567433,368
1756805820.1586626,390
1756805820.16079,378
1756805820.1626096,316
1756805820.167466,250
1756805820.167751,239
1756805820.1685433,291
1756805820.1709795,344
1756805820.1725402,344
1756805820.1745768,301
1756805820.1764662,275
1756805820.1785214,312
1756805820.1804147,383
1756805820.1826155,424
1756805820.1844466,400
1756805820.1863236,332
1756805820.1882646,277
1756805820.191163,267
1756805820.1924114,287
1756805820.1943681,298
1756805820.196241,282
1756805820.1983035,252
1756805820.2001684,235
1756805820.2106066,243
1756805820.2110534,255
1756805820.211783,254
1756805820.212367,235
1756805820.2124162,216
1756805820.2125223,215
1756805820.2136786,229
1756805820.2162046,244
1756805820.217588,251
1756805820.2196944,257
1756805820.2215865,266
1756805820.2235367,274
1756805820.225489,272
1756805820.2274683,261
1756805820.2302568,249
1756805820.2314544,241
1756805820.2333403,225
1756805820.2352705,201
1756805820.237246,185
1756805820.239572,196
1756805820.2412024,225
1756805820.2431343,237
1756805820.2451441,206
1756805820.2471135,155
1756805820.2490146,133
1756805820.2512057,155
1756805820.25299,175
1756805820.255125,142
1756805820.2569337,68
1756805820.259036,29
1756805820.2609808,68
1756805820.2629387,141
1756805820.2649126,168
1756805820.266752,128
1756805820.2688656,91
1756805820.2709427,119
1756805820.2752473,193
1756805820.2757668,234
1756805820.2780159,198
1756805820.2787848,121
1756805820.2810764,76
1756805820.2828019,91
1756805820.2856925,133
1756805820.2879124,153
1756805820.2890954,140
1756805820.2903767,120
1756805820.2925124,120
1756805820.295659,131
1756805820.2964962,116
1756805820.2983649,59
1756805820.3006752,1
1756805820.3022528,10
1756805820.3044565,103
1756805820.306217,209
1756805820.3115935,236
1756805820.3116632,179
1756805820.3119602,124
1756805820.3139281,146
1756805820.3158422,216
1756805820.3180227,237
1756805820.3198316,155
1756805820.321852,30
1756805820.3237891,-45
1756805820.3257105,-46
1756805820.327937,-24
1756805820.3298335,-13
1756805820.3318186,2
1756805820.3338068,43
1756805820.3356743,92
1756805820.3377085,113
1756805820.3410223,112
1756805820.341738,123
1756805820.3436828,158
1756805820.346538,174
1756805820.3474276,136
1756805820.3495498,75
1756805820.3519292,55
1756805820.3534927,89
1756805820.3553476,118
1756805820.357281,92
1756805820.3593528,39
1756805820.3612535,41
1756805820.363461,122
1756805820.3651319,207
1756805820.368957,200
1756805820.3690603,107
1756805820.3710213,19
1756805820.3730228,4
1756805820.3750331,30
1756805820.3769526,21
1756805820.3789182,-41
1756805820.3808832,-95
1756805820.382748,-94
1756805820.3846846,-69
1756805820.386983,-80
1756805820.3898609,-125
1756805820.390688,-140
1756805820.3927603,-81
1756805820.3953478,9
1756805820.3967113,47
1756805820.3989332,5
1756805820.4004538,-55
1756805820.4026163,-65
1756805820.4045584,-15
1756805820.4064896,39
1756805820.408213,39
1756805820.4102726,-23
1756805820.4121437,-107
1756805820.4142072,-166
1756805820.4163826,-183
1756805820.4261467,-175
1756805820.4263935,-170
1756805820.4281406,-184
1756805820.4282572,-210
1756805820.4284198,-224
1756805820.4288173,-211
1756805820.4298286,-164
1756805820.4320257,-95
1756805820.4339292,-32
1756805820.4358182,-11
1756805820.4389646,-44
1756805820.4398272,-105
1756805820.4418366,-142
1756805820.4438996,-132
1756805820.4460402,-108
1756805820.4476247,-121
1756805820.4497626,-182
1756805820.4515283,-239
1756805820.4540517,-240
1756805820.4555774,-184
1756805820.4602864,-121
1756805820.4619508,-99
1756805820.4619994,-119
1756805820.463244,-148
1756805820.465377,-164
1756805820.4671648,-171
1756805820.469135,-179
1756805820.471408,-195
1756805820.4730685,-218
1756805820.4752948,-246
1756805820.4771361,-278
1756805820.479098,-302
1756805820.4811087,-307
1756805820.4830298,-298
1756805820.4848757,-294
1756805820.488294,-306
1756805820.4900966,-322
1756805820.4912333,-323
1756805820.4937384,-303
1756805820.4946933,-280
1756805820.4967186,-272
1756805820.498626,-289
1756805820.5008893,-325
1756805820.50255,-375
1756805820.5045128,-431
1756805820.5066283,-474
1756805820.5084713,-491
1756805820.510471,-488
1756805820.5123587,-490
1756805820.514554,-506
1756805820.5219393,-523
1756805820.522037,-508
1756805820.5221035,-450
1756805820.5222216,-376
1756805820.525242,-337
1756805820.5265553,-357
1756805820.5314968,-418
1756805820.5317917,-467
1756805820.5322042,-457
1756805820.5342329,-403
1756805820.536111,-363
1756805820.538111,-382
1756805820.54011,-443
1756805820.54213,-472
1756805820.5439553,-416
1756805820.5458899,-307
1756805820.5477862,-241
1756805820.5499687,-279
1756805820.5524614,-385
1756805820.5539882,-466
1756805820.557771,-465
1756805820.557868,-417
1756805820.5595558,-399
1756805820.561819,-438
1756805820.5634947,-484
1756805820.5654378,-475
1756805820.5674412,-406
1756805820.56942,-339
1756805820.5716186,-334
1756805820.5735893,-369
1756805820.575465,-372
1756805820.5774393,-309
1756805820.5793655,-228
1756805820.5848587,-202
1756805820.5860655,-241
1756805820.586244,-281
1756805820.5914345,-257
1756805820.5916595,-182
1756805820.5918195,-133
1756805820.594856,-153
1756805820.5960891,-215
1756805820.5970752,-257
1756805820.599856,-255
1756805820.6023452,-225
1756805820.6038272,-197
1756805820.605861,-184
1756805820.6074047,-185
1756805820.6087036,-206
1756805820.614878,-249
1756805820.615004,-293
1756805820.6150742,-306
1756805820.6166193,-276
1756805820.6185024,-235
1756805820.6204782,-231
1756805820.6225073,-278
1756805820.624401,-335
1756805820.6263795,-348
1756805820.628438,-293
1756805820.6303415,-209
1756805820.6323917,-157
1756805820.6343913,-164
1756805820.6727362,-199
1756805820.6728134,-208
1756805820.6731098,-178
1756805820.673157,-157
1756805820.6733773,-195
1756805820.6736095,-281
1756805820.6736538,-349
1756805820.6736963,-338
1756805820.673738,-259
1756805820.6737802,-193
1756805820.6738229,-204
1756805820.6738665,-272
1756805820.6739094,-315
1756805820.673951,-275
1756805820.6739936,-183
1756805820.674034,-131
1756805820.6740768,-177
1756805820.6741197,-288
1756805820.6741612,-369
1756805820.674202,-366
1756805820.6754951,-308
1756805820.6775186,-281
1756805820.6837335,-356
1756805820.6838627,-527
1756805820.6839125,-734
1756805820.6853194,-909
1756805820.6873903,-1035
1756805820.6892562,-1150
1756805820.6912775,-1306
1756805820.6946015,-1520
1756805820.695241,-1749
1756805820.697152,-1912
1756805820.6991827,-1959
1756805820.7010374,-1907
1756805820.7030442,-1811
1756805820.705001,-1702
1756805820.707079,-1572
1756805820.710533,-1402
1756805820.7165792,-1203
1756805820.7167757,-1012
1756805820.7168958,-847
1756805820.7170126,-696
1756805820.7202358,-540
1756805820.720951,-405
1756805820.7261734,-339
1756805820.726316,-349
1756805820.7267537,-366
1756805820.7295077,-317
1756805820.7307243,-214
1756805820.7326434,-152
1756805820.734786,-198
1756805820.7366905,-311
1756805820.7386224,-385
1756805820.7408993,-369
1756805820.7424936,-321
1756805820.749381,-328
1756805820.749492,-396
1756805820.7495744,-453
1756805820.7508523,-439
1756805820.7523382,-375
1756805820.7541783,-322
1756805820.7566056,-300
1756805820.7634585,-278
1756805820.763713,-221
1756805820.784185,-149
1756805820.7882893,-109
1756805820.7884893,-126
1756805820.788797,-182
1756805820.7889574,-242
1756805820.7891474,-279
1756805820.7894573,-301
1756805820.7896774,-327
1756805820.789832,-364
1756805820.792475,-396
1756805820.7927067,-395
1756805820.7934995,-357
1756805820.7936609,-310
1756805820.7938159,-289
1756805820.7940044,-296
1756805820.7941592,-291
1756805820.7943137,-256
1756805820.8020825,-217
1756805820.8022802,-221
1756805820.8024755,-271
1756805820.8026874,-311
1756805820.804458,-293
1756805820.8054926,-238
1756805820.8072658,-205
1756805820.8092563,-221
1756805820.829368,-260
1756805820.8324993,-283
1756805820.8503003,-280
1756805820.8784857,-272
1756805820.8816302,-271
1756805820.8825603,-273
1756805820.882721,-279
1756805820.8827844,-300
1756805820.8828437,-334
1756805820.8829033,-356
1756805820.8829741,-339
1756805820.8830893,-299
1756805820.883221,-277
1756805820.8832793,-299
1756805820.8833373,-346
1756805820.8833947,-379
1756805820.8834524,-386
1756805820.8835032,-386
1756805820.8836462,-407
1756805820.8836944,-455
1756805820.8837414,-509
1756805820.8838098,-535
1756805820.8838558,-515
1756805820.8839014,-469
1756805820.8839476,-429
1756805820.8839939,-412
1756805820.88404,-399
1756805820.8840861,-361
1756805820.8841445,-299
1756805820.884191,-251
1756805820.8842366,-254
1756805820.8842826,-301
1756805820.884329,-357
1756805820.8843753,-405
1756805820.8845363,-445
1756805820.8845859,-482
1756805820.884651,-499
1756805820.8846996,-487
1756805820.8863382,-477
1756805820.887829,-514
1756805820.8897736,-585
1756805820.8923945,-625
1756805820.893861,-586
1756805820.8956711,-514
1756805820.897672,-509
1756805820.8999858,-607
1756805820.9016168,-726
1756805820.9035296,-747
1756805820.905462,-654
1756805820.907431,-548
1756805820.9095955,-536
1756805820.9139178,-620
1756805820.9140062,-707
1756805820.9161134,-715
1756805820.9189286,-660
1756805820.9192383,-622
1756805820.9212148,-666
1756805820.9234006,-777
1756805820.9251525,-886
1756805820.9273696,-924
1756805820.9297235,-876
1756805820.9316103,-800
1756805820.9360445,-773
1756805820.9420223,-816
1756805820.9423175,-875
1756805820.9428449,-881
1756805820.942967,-836
1756805820.94301,-813
1756805820.9460595,-865
1756805820.946708,-959
1756805820.9551916,-1015
1756805820.9563105,-1010
1756805820.9563591,-990
1756805820.9564037,-987
1756805820.956531,-969
1756805820.9585276,-900
1756805820.9640636,-814
1756805820.9645588,-790
1756805820.9648027,-843
1756805820.9664528,-883
1756805820.9683785,-837
1756805820.9715433,-751
1756805820.9724045,-748
1756805820.975529,-867
1756805820.9763057,-1004
1756805820.9782064,-1025
1756805820.9803545,-922
1756805820.9821792,-810
1756805820.9843633,-787
1756805820.9860086,-830
1756805820.987986,-846
1756805820.989929,-795
1756805820.9918964,-724
1756805820.9939713,-696
1756805820.995854,-709
1756805820.9978964,-710
1756805820.9997988,-676
1756805821.0017605,-645
1756805821.003707,-656
1756805821.0064592,-684
1756805821.007666,-654
1756805821.0097477,-531
1756805821.0116594,-370
1756805821.0135884,-273
1756805821.015519,-277
1756805821.0176647,-322
1756805821.0197043,-324
1756805821.02157,-264
1756805821.023461,-186
1756805821.0254183,-145
1756805821.0275815,-145
1756805821.029915,-153
1756805821.0347643,-131
1756805821.035376,-66
1756805821.0357966,37
1756805821.0372066,152
1756805821.0393214,242
1756805821.0410988,280
1756805821.0436873,274
1756805821.0450315,273
1756805821.048066,314
1756805821.048905,388
1756805821.0512383,439
1756805821.0528655,443
1756805821.055168,438
1756805821.056817,477
1756805821.0608742,566
1756805821.0818772,653
1756805821.082404,681
1756805821.0826004,655
1756805821.0827763,620
1756805821.082949,614
1756805821.0831196,627
1756805821.0832944,622
1756805821.0834649,588
1756805821.0836399,549
1756805821.0838096,542
1756805821.0839796,582
1756805821.0841486,654
1756805821.0843945,725
1756805821.0864673,767
1756805821.0894215,777
1756805821.0979872,778
1756805821.099981,792
1756805821.100055,814
1756805821.1001146,808
1756805821.1002202,751
1756805821.1002803,666
1756805821.1022973,610
1756805821.104274,611
1756805821.105931,646
1756805821.1086946,663
1756805821.1100135,639
1756805821.1118376,609
1756805821.1138308,614
1756805821.1157217,661
1756805821.1177776,710
1756805821.1198692,728
1756805821.12171,713
1756805821.1237833,705
1756805821.1255562,723
1756805821.127534,744
1756805821.129667,733
1756805821.1316044,681
1756805821.1337147,630
1756805821.1355383,619
1756805821.1374955,632
1756805821.1394289,620
1756805821.1414733,557
1756805821.1446493,485
1756805821.1458604,462
1756805821.1474211,488
1756805821.1496966,506
1756805821.1512709,478
1756805821.153199,421
1756805821.1564815,382
1756805821.157877,375
1756805821.1589744,372
1756805821.1617897,350
1756805821.1630507,321
1756805821.164948,295
1756805821.1669574,254
1756805821.168902,178
1756805821.1716285,103
1756805821.1727927,96
1756805821.1747863,162
1756805821.1767433,225
1756805821.1786957,210
1756805821.1806755,119
1756805821.1826425,32
1756805821.1845489,4
1756805821.1865275,7
1756805821.1888862,-25
1756805821.1905255,-111
1756805821.1924841,-205
1756805821.1943798,-251
1756805821.196384,-239
1756805821.1982954,-197
1756805821.2003953,-153
1756805821.2022502,-113
1756805821.2046783,-75
1756805821.2062454,-55
1756805821.2081647,-70
1756805821.210345,-115
1756805821.2123394,-165
1756805821.2174625,-209
1756805821.2175925,-259
1756805821.2180238,-334
1756805821.2206244,-420
1756805821.2220242,-463
1756805821.2239935,-435
1756805821.228782,-376
1756805821.2292852,-355
1756805821.2297504,-396
1756805821.2331705,-436
1756805821.2353144,-399
1756805821.2356353,-300
1756805821.2376447,-234
1756805821.2396252,-272
1756805821.2415245,-380
1756805821.24348,-451
1756805821.245447,-425
1756805821.2475502,-338
1756805821.249435,-274
1756805821.251485,-282
1756805821.2534044,-333
1756805821.255337,-362
1756805821.2572918,-335
1756805821.2597637,-268
1756805821.2613192,-214
1756805821.2637026,-220
1756805821.2651331,-277
1756805821.2676113,-328
1756805821.2691002,-321
1756805821.2711186,-276
1756805821.2733343,-266
1756805821.275215,-323
1756805821.2769492,-392
1756805821.2788692,-394
1756805821.2808459,-333
1756805821.2831404,-290
1756805821.2853518,-322
1756805821.2874382,-385
1756805821.2897537,-387
1756805821.2911398,-295
1756805821.2933004,-177
1756805821.2945952,-124
1756805821.2965407,-145
1756805821.298539,-172
1756805821.3006089,-145
1756805821.3030343,-85
1756805821.3044474,-54
1756805821.3064122,-88
1756805821.3083322,-157
1756805821.3103812,-202
1756805821.3128507,-203
1756805821.3142314,-191
1756805821.3162665,-206
1756805821.3189888,-248
1756805821.3202443,-277
1756805821.3221068,-256
1756805821.3242202,-193
1756805821.3264513,-126
1756805821.3282018,-91
1756805821.330247,-90
1756805821.3320308,-100
1756805821.3340871,-105
1756805821.3359466,-112
1756805821.340453,-140
1756805821.3405955,-194
1756805821.3418083,-253
1756805821.3437955,-280
1756805821.3457792,-269
1756805821.3497076,-249
1756805821.349831,-252
1756805821.3515887,-268
1756805821.3536017,-252
1756805821.3555017,-190
1756805821.3575583,-133
1756805821.360242,-142
1756805821.3614645,-211
1756805821.3634245,-263
1756805821.3662574,-235
1756805821.3674233,-154
1756805821.3698719,-100
1756805821.3713112,-114
1756805821.373298,-148
1756805821.3752325,-145
1756805821.377295,-108
1756805821.3791375,-76
1756805821.3827465,-69
1756805821.3833225,-72
1756805821.384987,-68
1756805821.3869903,-71
1756805821.3889134,-97
1756805821.3909683,-129
1756805821.3929358,-137
1756805821.3951256,-122
1756805821.3969111,-113
1756805821.3989618,-137
1756805821.400912,-182
1756805821.4027972,-210
1756805821.4048197,-204
1756805821.4067755,-173
1756805821.4118607,-140
1756805821.411998,-125
1756805821.4126422,-135
1756805821.416546,-160
1756805821.416897,-182
1756805821.419821,-176
1756805821.4203799,-137
1756805821.4223363,-94
1756805821.425804,-101
1756805821.4262583,-173
1756805821.4322834,-255
1756805821.432357,-264
1756805821.4324026,-180
1756805821.4343798,-90
1756805821.4361966,-103
1756805821.4381008,-220
1756805821.440046,-310
1756805821.4422917,-255
1756805821.4440045,-105
1756805821.4473546,-31
1756805821.452859,-124
1756805821.45297,-279
1756805821.4557421,-325
1756805821.4558337,-228
1756805821.4559436,-132
1756805821.457903,-175
1756805821.460803,-319
1756805821.4617186,-415
1756805821.4638455,-390
1756805821.465891,-332
1756805821.4677448,-346
1756805821.4696748,-420
1756805821.4715464,-462
1756805821.475178,-440
1756805821.4754658,-427
1756805821.4774916,-486
1756805821.4794168,-572
1756805821.4820683,-594
1756805821.4833488,-544
1756805821.4852073,-507
1756805821.4872563,-546
1756805821.4891984,-619
1756805821.4911563,-627
1756805821.4931219,-542
1756805821.4950838,-431
1756805821.497096,-353
1756805821.499004,-305
1756805821.5023904,-247
1756805821.503231,-173
1756805821.505053,-117
1756805821.5070949,-99
1756805821.5090492,-101
1756805821.5143652,-106
1756805821.5149708,-128
1756805821.5156362,-181
1756805821.5168498,-238
1756805821.5207906,-259
1756805821.5211067,-238
1756805821.5227137,-209
1756805821.5253158,-205
1756805821.5265398,-219
1756805821.5284553,-226
1756805821.5305512,-225
1756805821.5323825,-230
1756805821.5344567,-237
1756805821.5363762,-219
1756805821.5383549,-168
1756805821.5406897,-118
1756805821.5423245,-107
1756805821.5442278,-125
1756805821.5469232,-122
1756805821.5486684,-70
1756805821.5501194,3
1756805821.5523674,34
1756805821.554123,2
1756805821.556021,-52
1756805821.5602982,-71
1756805821.5604222,-50
1756805821.5688877,-35
1756805821.5690777,-68
1756805821.5691288,-126
1756805821.569176,-149
1756805821.570507,-116
1756805821.57271,-61
1756805821.5748255,-28
1756805821.575632,-18
1756805821.5776916,0
1756805821.5796793,25
1756805821.5815372,27
1756805821.583496,-11
1756805821.5854585,-62
1756805821.5874152,-93
1756805821.5893893,-106
1756805821.5913475,-126
1756805821.593353,-148
1756805821.5952733,-138
1756805821.5972257,-101
1756805821.599464,-96
1756805821.6022615,-151
1756805821.6033921,-206
1756805821.6053374,-176
1756805821.607319,-72
1756805821.6093285,-11
1756805821.6119046,-69
1756805821.6147225,-176
1756805821.6153674,-195
1756805821.61718,-89
1756805821.6191266,24
1756805821.6210945,7
1756805821.6230876,-140
1756805821.6250124,-296
1756805821.6267703,-371
1756805821.6287394,-390
1756805821.6307085,-455
1756805821.6356976,-619
1756805821.6430724,-848
1756805821.6432545,-1068
1756805821.643385,-1240
1756805821.6438699,-1375
1756805821.6439867,-1491
1756805821.644503,-1583
1756805821.6473856,-1629
1756805821.6484952,-1619
1756805821.650369,-1578
1756805821.6523254,-1522
1756805821.655738,-1439
1756805821.6563761,-1294
1756805821.6584868,-1078
1756805821.6605325,-832
1756805821.6660168,-617
1756805821.6757026,-464
1756805821.675814,-354
1756805821.6758568,-251
1756805821.6758995,-143
1756805821.675975,-50
1756805821.6760192,-15
1756805821.6760607,-49
1756805821.6778681,-116
1756805821.6805203,-160
1756805821.6826954,-154
1756805821.6837296,-142
1756805821.6856723,-182
1756805821.688729,-264
1756805821.6896687,-304
1756805821.69161,-249
1756805821.6937184,-164
1756805821.6955488,-164
1756805821.6981177,-281
1756805821.699446,-401
1756805821.7014532,-399
1756805821.7034466,-294
1756805821.7055497,-226
1756805821.707307,-280
1756805821.7093148,-380
1756805821.7121048,-395
1756805821.7132246,-303
1756805821.7152097,-207
1756805821.717305,-196
1756805821.7191541,-235
1756805821.7214172,-233
1756805821.7231584,-171
1756805821.7251105,-120
1756805821.7272136,-142
1756805821.7291584,-213
1756805821.7313287,-264
1756805821.7329016,-263
1756805821.7349133,-240
1756805821.7369218,-239
1756805821.7387826,-265
1756805821.7429242,-293
1756805821.7430074,-314
1756805821.7448363,-332
1756805821.7466607,-343
1756805821.748607,-333
1756805821.7505713,-304
1756805821.7534435,-286
1756805821.754491,-310
1756805821.7564323,-365
1756805821.7590592,-395
1756805821.7605007,-368
1756805821.7647026,-307
1756805821.764787,-274
1756805821.7664263,-291
1756805821.7690396,-322
1756805821.7703874,-307
1756805821.772269,-239
1756805821.7764332,-169
1756805821.776663,-147
1756805821.7782178,-177
1756805821.7803035,-217
1756805821.7822962,-236
1756805821.784148,-240
1756805821.7868633,-255
1756805821.7880225,-294
1756805821.790064,-344
1756805821.7924516,-388
1756805821.7939446,-423
1756805821.7964249,-445
1756805821.7979195,-450
1756805821.799922,-439
1756805821.802482,-425
1756805821.8037527,-415
1756805821.8057709,-410
1756805821.8076923,-405
1756805821.8097162,-393
1756805821.8338847,-364
1756805821.8342414,-315
1756805821.8344436,-263
1756805821.834642,-250
1756805821.834839,-305
1756805821.8350346,-391
1756805821.8353095,-426
1756805821.835507,-377
1756805821.8357034,-313
1756805821.8364992,-339
1756805821.8367062,-466
1756805821.8369026,-591
1756805821.8371,-612
1756805821.84119,-536
1756805821.8417714,-472
1756805821.8419726,-498
1756805821.84318,-582
1756805821.8450747,-638
1756805821.8470955,-625
1756805821.8497918,-574
1756805821.851323,-533
1756805821.8535867,-520
1756805821.8548992,-531
1756805821.8568752,-562
1756805821.859392,-606
1756805821.862695,-643
1756805821.8631272,-658
1756805821.86476,-661
1756805821.8667424,-678
1756805821.8973103,-718
1756805821.8975601,-759
1756805821.8977597,-777
1756805821.897956,-774
1756805821.898151,-774
1756805821.898348,-780
1756805821.8985431,-774
1756805821.8987396,-746
1756805821.8989363,-711
1756805821.899335,-699
1756805821.900059,-717
1756805821.9005198,-747
1756805821.9007175,-768
1756805821.9009135,-778
1756805821.9011097,-799
1756805821.901306,-847
1756805821.901501,-900
1756805821.902002,-929
1756805821.9039717,-931
1756805821.90595,-932
1756805821.907901,-954
1756805821.9116027,-981
1756805821.9118273,-985
1756805821.9151578,-956
1756805821.915751,-930
1756805821.9178495,-940
1756805821.9198017,-976
1756805821.9217587,-1006
1756805821.9236712,-1002
1756805821.9256582,-971
1756805821.9312084,-939
1756805821.9315584,-918
1756805821.931907,-912
1756805821.9335134,-916
1756805821.941851,-916
1756805821.9435625,-905
1756805821.9438047,-887
1756805821.944004,-879
1756805821.9443913,-890
1756805821.9457853,-908
1756805821.9474444,-907
1756805821.949663,-883
1756805821.9512591,-850
1756805821.9531877,-821
1756805821.955359,-783
1756805821.959597,-730
1756805821.9620166,-672
1756805821.9622445,-617
1756805821.9648952,-558
1756805821.9658313,-488
1756805821.966881,-425
1756805821.9755225,-398
1756805821.9757802,-400
1756805821.9760125,-392
1756805821.9762151,-338
1756805821.9767473,-256
1756805821.9796112,-198
1756805821.980652,-181
1756805821.9846923,-171
1756805821.9853036,-132
1756805821.9865847,-73
1756805821.988514,-24
1756805821.990499,4
1756805821.9924314,25
1756805821.9972584,47
1756805821.9975362,50
1756805821.9983535,28
1756805822.0073323,8
1756805822.007597,25
1756805822.0077977,68
1756805822.0080042,92
1756805822.0081997,67
1756805822.0170977,27
1756805822.0179446,30
1756805822.0191293,91
1756805822.0266705,172
1756805822.0272787,216
1756805822.0275524,208
1756805822.0277526,183
1756805822.0280664,192
1756805822.0286381,240
1756805822.0288413,290
1756805822.0298593,301
1756805822.0368345,277
1756805822.0371048,260
1756805822.0373058,283
1756805822.0376177,333
1756805822.0401769,370
1756805822.0416243,370
1756805822.0436106,355
1756805822.0628908,352
1756805822.0633116,359
1756805822.0636735,353
1756805822.0638723,332
1756805822.0640697,309
1756805822.0642662,301
1756805822.0644608,296
1756805822.0646548,276
1756805822.0648508,244
1756805822.065062,225
1756805822.0652578,231
1756805822.0806966,241
1756805822.0809603,233
1756805822.081162,213
1756805822.0813582,213
1756805822.081554,236
1756805822.0817497,244
1756805822.0819457,210
1756805822.0821426,158
1756805822.082905,145
1756805822.0872722,187
1756805822.0874894,226
1756805822.0908082,196
1756805822.091268,111
1756805822.0926678,60
1756805822.0946443,94
1756805822.1011488,168
1756805822.1014035,195
1756805822.1016035,152
1756805822.1025007,116
1756805822.1044824,158
1756805822.106493,251
1756805822.1083837,301
1756805822.1142113,248
1756805822.1171677,139
1756805822.1173923,73
1756805822.1175926,81
1756805822.1181798,112
1756805822.1203005,94
1756805822.125152,20
1756805822.1253886,-42
1756805822.1260862,-22
1756805822.12857,77
1756805822.13063,179
1756805822.1319625,200
1756805822.13861,133
1756805822.1388378,41
1756805822.1391757,-7
1756805822.1398106,-15
1756805822.1417832,-39
1756805822.1437604,-103
1756805822.1457083,-166
1756805822.1481113,-168
1756805822.1497884,-113
1756805822.1519923,-55
1756805822.1535869,-27
1756805822.1555638,0
1756805822.1605449,70
1756805822.1609848,153
1756805822.1614592,172
1756805822.1704214,92
1756805822.1706557,-25
1756805822.1708555,-84
1756805822.1712065,-62
1756805822.1714065,-30
1756805822.1738808,-53
1756805822.1753008,-119
1756805822.1786554,-151
1756805822.1794112,-102
1756805822.1812463,-17
1756805822.1841505,25
1756805822.1853719,-5
1756805822.1870859,-60
1756805822.19168,-77
1756805822.192015,-55
1756805822.1929395,-55
1756805822.1998382,-112
1756805822.2001102,-192
1756805822.2006223,-233
1756805822.2008283,-217
1756805822.203396,-186
1756805822.204702,-186
1756805822.2140667,-209
1756805822.217127,-211
1756805822.2174206,-191
1756805822.22295,-184
1756805822.2233884,-205
1756805822.2235935,-225
1756805822.223807,-191
1756805822.2244391,-108
1756805822.2262034,-38
1756805822.2264338,-44
1756805822.2266943,-112
1756805822.2287993,-178
1756805822.2352834,-188
1756805822.2360175,-143
1756805822.236423,-85
1756805822.2369215,-63
1756805822.2380898,-84
1756805822.2400424,-116
1756805822.2420723,-112
1756805822.244123,-60
1756805822.2459767,6
1756805822.2479243,40
1756805822.249883,27
1756805822.2573864,-17
1756805822.2576675,-74
1756805822.257867,-146
1756805822.258064,-227
1756805822.2598124,-278
1756805822.2617753,-273
1756805822.263655,-243
1756805822.2714453,-247
1756805822.2717404,-310
1756805822.27194,-371
1756805822.2721353,-353
1756805822.2767794,-260
1756805822.277004,-178
1756805822.2773945,-175
1756805822.2796025,-224
1756805822.2813456,-260
1756805822.2840436,-253
1756805822.2854018,-241
1756805822.2874124,-258
1756805822.289194,-276
1756805822.295438,-256
1756805822.2957468,-210
1756805822.295971,-187
1756805822.2975862,-212
1756805822.2991831,-247
1756805822.300983,-226
1756805822.303184,-132
1756805822.3048751,-24
1756805822.3070712,26
1756805822.3089132,-3
1756805822.3116205,-78
1756805822.3127975,-148
1756805822.3358407,-182
1756805822.336389,-185
1756805822.3367314,-180
1756805822.337253,-199
1756805822.3384736,-251
1756805822.3394558,-315
1756805822.339661,-347
1756805822.3398578,-311
1756805822.3400567,-227
1756805822.3404453,-149
1756805822.3406432,-111
1756805822.3408396,-97
1756805822.341036,-78
1756805822.341287,-55
1756805822.3437958,-57
1756805822.344491,-87
1756805822.3461475,-91
1756805822.3528054,-32
1756805822.3530312,53
1756805822.3532262,74
1756805822.3540466,5
1756805822.3560567,-78
1756805822.3581078,-80
1756805822.365895,-16
1756805822.3667333,-3
1756805822.366954,-108
1756805822.367444,-271
1756805822.3678207,-364
1756805822.36978,-341
1756805822.3717446,-279
1756805822.3741152,-265
1756805822.375685,-294
1756805822.3784287,-290
1756805822.3796916,-218
1756805822.3815856,-134
1756805822.3835425,-110
1756805822.3877008,-142
1756805822.387935,-170
1756805822.3900158,-157
1756805822.391469,-138
1756805822.3992085,-161
1756805822.3994768,-217
1756805822.3996754,-243
1756805822.3999743,-207
1756805822.401223,-143
1756805822.40402,-114
1756805822.4051518,-135
1756805822.4072487,-163
1756805822.4090946,-161
1756805822.4140654,-145
1756805822.414348,-158
1756805822.4172604,-204
1756805822.4174721,-246
1756805822.4193869,-255
1756805822.420929,-252
1756805822.4319613,-277
1756805822.4323263,-320
1756805822.432554,-328
1756805822.4327896,-281
1756805822.4330018,-224
1756805822.4331994,-222
1756805822.4348142,-273
1756805822.436853,-306
1756805822.4386072,-269
1756805822.4405484,-192
1756805822.4425068,-152
1756805822.4444988,-171
1756805822.4464269,-205
1756805822.448498,-195
1756805822.4508848,-148
1756805822.4526553,-119
1756805822.463311,-135
1756805822.4636488,-162
1756805822.4638517,-157
1756805822.4658463,-128
1756805822.4660985,-118
1756805822.4662971,-147
1756805822.466495,-183
1756805822.4680603,-187
1756805822.4701562,-166
1756805822.4719944,-157
1756805822.4740684,-169
1756805822.4770324,-166
1756805822.4779,-115
1756805822.4801393,-35
1756805822.481824,27
1756805822.4839363,58
1756805822.485786,86
1756805822.4880981,131
1756805822.4903133,176
1756805822.4979055,180
1756805822.4982193,141
1756805822.4984179,98
1756805822.498653,83
1756805822.4997244,78
1756805822.505034,59
1756805822.50525,33
1756805822.505474,30
1756805822.5073392,61
1756805822.511941,102
1756805822.512165,138
1756805822.5133176,180
1756805822.5153499,233
1756805822.5172045,266
1756805822.5193136,250
1756805822.5212574,202
1756805822.5246956,176
1756805822.5250878,194
1756805822.5273104,218
1756805822.5290558,201
1756805822.5311525,158
1756805822.5334504,145
1756805822.5349576,167
1756805822.5369916,177
1756805822.5418925,135
1756805822.5433218,85
1756805822.5437183,96
1756805822.544715,172
1756805822.5471587,238
1756805822.5486984,232
1756805822.5506892,187
1756805822.5526834,187
1756805822.5545857,257
1756805822.5566297,332
1756805822.558531,338
1756805822.560705,275
1756805822.5625117,208
1756805822.5644462,197
1756805822.5666168,234
1756805822.5683763,262
1756805822.5704648,241
1756805822.5725446,180
1756805822.5755286,115
1756805822.5782127,77
1756805822.5784187,74
1756805822.5848908,84
1756805822.5852275,73
1756805822.5854366,25
1756805822.5860696,-49
1756805822.589347,-120
1756805822.5909872,-183
1756805822.5919952,-267
1756805822.6007261,-403
1756805822.60149,-587
1756805822.619673,-779
1756805822.6209273,-944
1756805822.6211927,-1074
1756805822.6218624,-1182
1756805822.622088,-1271
1756805822.6223037,-1307
1756805822.6225138,-1257
1756805822.622742,-1130
1756805822.6229405,-965
1756805822.623288,-795
1756805822.6234863,-624
1756805822.6236837,-441
1756805822.623879,-255
1756805822.6241217,-94
1756805822.625338,19
1756805822.6282895,91
1756805822.629594,140
1756805822.631351,179
1756805822.6333082,204
1756805822.6353564,220
1756805822.6372,239
1756805822.6393495,266
1756805822.6419666,296
1756805822.664167,305
1756805822.6644418,280
1756805822.6646502,234
1756805822.66485,188
1756805822.665338,148
1756805822.6656942,105
1756805822.6659296,72
1756805822.6661417,74
1756805822.6663375,125
1756805822.6666217,194
1756805822.6671042,236
1756805822.667303,238
1756805822.6685326,229
1756805822.6691673,242
1756805822.6705904,270
1756805822.6729639,277
1756805822.674552,237
1756805822.6764796,167
1756805822.6786397,103
1756805822.6805513,70
1756805822.6824021,75
1756805822.6844707,110
1756805822.6863973,151
1756805822.688345,168
1756805822.6901975,153
1756805822.692565,135
1756805822.6941898,160
1756805822.696351,218
1756805822.6986613,244
1756805822.7003071,187
1756805822.7023537,88
1756805822.704397,41
1756805822.706055,85
1756805822.708934,153
1756805822.712792,157
1756805822.7131045,95
1756805822.7137504,50
1756805822.7157612,89
1756805822.717754,176
1756805822.7196343,214
1756805822.7216399,153
1756805822.723589,53
1756805822.7265053,-1
1756805822.7282755,15
1756805822.7302175,46
1756805822.7315054,34
1756805822.7334816,-20
1756805822.735372,-53
1756805822.7373998,-20
1756805822.739326,52
1756805822.741265,96
1756805822.7432423,77
1756805822.745387,30
1756805822.7472184,18
1756805822.749357,55
1756805822.751221,96
1756805822.7531145,98
1756805822.7554626,61
1756805822.7577572,22
1756805822.7595742,-4
1756805822.761012,-21
1756805822.7645571,-33
1756805822.7648726,-25
1756805822.7671533,-11
1756805822.7688155,-32
1756805822.7710915,-107
1756805822.772891,-192
1756805822.7750964,-209
1756805822.7767556,-143
1756805822.77876,-73
1756805822.7806585,-84
1756805822.78264,-167
1756805822.7866046,-239
1756805822.7870228,-235
1756805822.7884624,-190
1756805822.7904325,-181
1756805822.79281,-230
1756805822.7943623,-281
1756805822.7974885,-277
1756805822.798358,-226
1756805822.8003922,-190
1756805822.802179,-200
1756805822.8045459,-221
1756805822.8061833,-198
1756805822.8084922,-139
1756805822.8101025,-107
1756805822.8168724,-156
1756805822.8171322,-264
1756805822.8173304,-354
1756805822.817927,-385
1756805822.820328,-387
1756805822.8226378,-417
1756805822.8238943,-474
1756805822.8262432,-498
1756805822.8300362,-444
1756805822.830503,-358
1756805822.8317974,-322
1756805822.8373978,-357
1756805822.8434136,-396
1756805822.843709,-372
1756805822.8442228,-305
1756805822.8444827,-285
1756805822.847471,-363
1756805822.848587,-485
1756805822.8489711,-556
1756805822.8493724,-541
1756805822.8518982,-490
1756805822.8532739,-473
1756805822.8552933,-510
1756805822.857317,-563
1756805822.8637972,-607
1756805822.864307,-638
1756805822.8645134,-666
1756805822.8651772,-687
1756805822.8672197,-702
1756805822.8691342,-725
1756805822.8724709,-767
1756805822.8730674,-805
1756805822.87536,-801
1756805822.876987,-745
1756805822.8793046,-684
1756805822.8809867,-680
1756805822.8830209,-737
1756805822.8852255,-785
1756805822.8870316,-757
1756805822.8889797,-670
1756805822.8910074,-615
1756805822.892812,-655
1756805822.8952987,-752
1756805822.9142346,-807
1756805822.9145777,-763
1756805822.9149806,-661
1756805822.9151914,-595
1756805822.9153886,-602
1756805822.9155848,-631
1756805822.9157803,-602
1756805822.9163268,-506
1756805822.9165263,-407
1756805822.916723,-366
1756805822.9169197,-372
1756805822.9181547,-371
1756805822.920451,-348
1756805822.9221404,-337
1756805822.9240885,-370
1756805822.9261038,-407
1756805822.9280388,-382
1756805822.9301116,-291
1756805822.9320493,-199
1756805822.948388,-156
1756805822.9485145,-134
1756805822.9485753,-70
1756805822.9486346,39
1756805822.9486923,127
1756805822.948751,147
1756805822.948808,130
1756805822.9488664,146
1756805822.9496613,202
1756805822.9523296,241
1756805822.9535542,225
1756805822.9554532,195
1756805822.9574003,223
1756805822.959394,330
1756805822.9614835,445
1756805822.9644783,500
1756805822.9652157,498
1756805822.9672585,491
1756805822.969649,518
1756805822.9713745,553
1756805822.9795616,541
1756805822.9797003,466
1756805822.9797583,367
1756805822.9800284,311
1756805822.980945,330
1756805822.9836352,387
1756805822.9848504,416
1756805822.9872494,388
1756805822.9890754,345
1756805822.9909055,351
1756805822.9929206,416
1756805822.9947865,478
1756805822.9974678,475
1756805822.9987607,407
1756805823.000708,333
1756805823.0027144,308
1756805823.0046268,335
1756805823.0066092,380
1756805823.008583,417
1756805823.0136523,433
1756805823.0146277,421
1756805823.015111,394
1756805823.016453,385
1756805823.0220716,419
1756805823.0235465,479
1756805823.0236182,506
1756805823.024612,467
1756805823.0263653,390
1756805823.0286956,336
1756805823.0310597,327
1756805823.0329347,339
1756805823.0342128,340
1756805823.0372941,324
1756805823.03809,306
1756805823.0403626,299
1756805823.0419989,297
1756805823.0453594,294
1756805823.0460792,289
1756805823.048216,278
1756805823.0499537,254
1756805823.051916,216
1756805823.053862,173
1756805823.0557907,133
1756805823.0578015,89
1756805823.0597155,46
1756805823.0617194,25
1756805823.0636842,37
1756805823.0656295,67
1756805823.0677228,83
1756805823.0695956,76
1756805823.0714505,62
1756805823.0734653,66
1756805823.0754938,97
1756805823.0775614,151
1756805823.0884035,217
1756805823.08868,257
1756805823.0890734,232
1756805823.089478,150
1756805823.0897474,77
1756805823.1117904,77
1756805823.1124136,126
1756805823.1128223,123
1756805823.1139102,21
1756805823.1144352,-105
1756805823.1147187,-133
1756805823.116055,-46
1756805823.1165364,48
1756805823.1169035,43
1756805823.1171293,-40
1756805823.1173263,-82
1756805823.1175244,-19
1756805823.1177201,81
1756805823.118901,119
1756805823.1192157,64
1756805823.122075,-22
1756805823.1222992,-64
1756805823.1226606,-52
1756805823.1301258,-25
1756805823.1304617,-24
1756805823.1309164,-56
1756805823.1311183,-104
1756805823.132459,-150
1756805823.1345851,-175
1756805823.1373343,-169
1756805823.1383924,-132
1756805823.146519,-86
1756805823.146752,-64
1756805823.1469512,-75
1756805823.1471496,-98
1756805823.1483543,-96
1756805823.1501544,-47
1756805823.1524928,24
1756805823.154114,67
1756805823.1559787,53
1756805823.158093,-3
1756805823.16,-51
1756805823.161941,-68
1756805823.1639073,-68
1756805823.1658132,-79
1756805823.1732638,-105
1756805823.173488,-118
1756805823.1737528,-101
1756805823.1741679,-77
1756805823.1845875,-76
1756805823.1848226,-96
1756805823.1850202,-98
1756805823.185218,-66
1756805823.185427,-33
1756805823.1856258,-45
1756805823.1877089,-108
1756805823.1897802,-168
1756805823.191468,-169
1756805823.1963687,-119
1756805823.1965907,-77
1756805823.197314,-89
1756805823.1993978,-137
1756805823.2012987,-162
1756805823.2034523,-137
1756805823.2051523,-76
1756805823.2073271,-36
1756805823.2101772,-55
1756805823.212401,-128
1756805823.2132835,-199
1756805823.2190156,-202
1756805823.2193317,-121
1756805823.2196074,-20
1756805823.220944,-8
1756805823.227023,-117
1756805823.2272427,-239
1756805823.2274408,-233
1756805823.2287996,-87
1756805823.230749,47
1756805823.2326565,21
1756805823.2346146,-133
1756805823.236566,-232
1756805823.2385404,-163
1756805823.2407365,-21
1756805823.2438338,15
1756805823.244552,-101
1756805823.246312,-229
1756805823.2482657,-229
1756805823.2502987,-128
1756805823.2524042,-64
1756805823.2543902,-119
1756805823.2561955,-224
1756805823.2581358,-266
1756805823.2602863,-226
1756805823.261979,-179
1756805823.26425,-190
1756805823.265897,-244
1756805823.267933,-281
1756805823.2714913,-271
1756805823.2720914,-244
1756805823.2748709,-238
1756805823.27638,-243
1756805823.2778108,-226
1756805823.2834609,-180
1756805823.2841787,-139
1756805823.284341,-139
1756805823.2862477,-163
1756805823.2882485,-151
1756805823.2896743,-84
1756805823.2915945,-24
1756805823.2939131,-47
1756805823.2954118,-150
1756805823.2979412,-241
1756805823.2993698,-236
1756805823.301366,-163
1756805823.3033051,-122
1756805823.3052552,-164
1756805823.3081725,-235
1756805823.312051,-251
1756805823.3128042,-204
1756805823.3132327,-160
1756805823.315489,-176
1756805823.3171558,-243
1756805823.3218462,-311
1756805823.3226032,-351
1756805823.3231287,-370
1756805823.3260653,-385
1756805823.3269694,-396
1756805823.3296404,-401
1756805823.3309605,-410
1756805823.332965,-431
1756805823.3350298,-460
1756805823.3370054,-476
1756805823.3389864,-464
1756805823.3409696,-428
1756805823.3429706,-387
1756805823.344817,-356
1756805823.3467674,-342
1756805823.3487122,-347
1756805823.3506422,-357
1756805823.3528152,-358
1756805823.3545992,-347
1756805823.3565462,-336
1756805823.3585937,-339
1756805823.3607137,-362
1756805823.3626387,-399
1756805823.3664827,-434
1756805823.366715,-451
1756805823.3682272,-437
1756805823.3702192,-394
1756805823.3723934,-350
1756805823.3753312,-342
1756805823.3760717,-381
1756805823.3791325,-424
1756805823.3810005,-418
1756805823.3821425,-366
1756805823.384998,-332
1756805823.3859038,-369
1756805823.3878415,-452
1756805823.3897889,-492
1756805823.3917806,-444
1756805823.393912,-361
1756805823.3958502,-332
1756805823.3978872,-364
1756805823.3998337,-386
1756805823.401758,-349
1756805823.40381,-293
1756805823.4057786,-287
1756805823.4078693,-320
1756805823.4096131,-325
1756805823.4224687,-278
1756805823.4275622,-245
1756805823.4310274,-282
1756805823.4312308,-346
1756805823.4313908,-332
1756805823.431547,-219
1756805823.4317014,-113
1756805823.4318552,-128
1756805823.4320083,-241
1756805823.4321632,-327
1756805823.4324408,-304
1756805823.4333808,-222
1756805823.43599,-182
1756805823.437057,-214
1756805823.4390845,-251
1756805823.4423537,-225
1756805823.4440308,-147
1756805823.4448168,-92
1756805823.4469118,-102
1756805823.4500103,-144
1756805823.450737,-146
1756805823.4527545,-87
1756805823.454629,-25
1756805823.456754,-38
1756805823.4585762,-139
1756805823.460845,-239
1756805823.4628067,-242
1756805823.464493,-154
1756805823.4666555,-80
1756805823.4684238,-112
1756805823.4714417,-218
1756805823.4723458,-271
1756805823.4744182,-197
1756805823.4782927,-67
1756805823.4821982,-6
1756805823.4823353,-47
1756805823.4824555,-108
1756805823.484944,-98
1756805823.4870327,-34
1756805823.488283,-4
1756805823.4900644,-54
1756805823.4919393,-135
1756805823.4940438,-179
1756805823.4958723,-173
1756805823.4979134,-160
1756805823.4998667,-166
1756805823.5018778,-176
1756805823.5037563,-175
1756805823.5057223,-177
1756805823.5077035,-199
1756805823.5096412,-224
1756805823.5116436,-217
1756805823.5136323,-178
1756805823.5158496,-152
1756805823.5175498,-168
1756805823.5203078,-217
1756805823.5216196,-255
1756805823.5255055,-265
1756805823.5258367,-262
1756805823.5281887,-259
1756805823.5303135,-261
1756805823.5338187,-285
1756805823.5344758,-370
1756805823.53534,-527
1756805823.5372458,-710
1756805823.5392306,-855
1756805823.5412447,-956
1756805823.5438375,-1078
1756805823.5451248,-1272
1756805823.547089,-1496
1756805823.5498714,-1658
1756805823.5510533,-1713
1756805823.5528815,-1695
1756805823.5549402,-1636
1756805823.5567873,-1520
1756805823.5599465,-1337
1756805823.5608287,-1141
1756805823.5627944,-1004
1756805823.5651174,-912
1756805823.5665944,-768
1756805823.5685775,-523
1756805823.5705454,-270
1756805823.5728137,-149
1756805823.574768,-180
1756805823.5767462,-233
1756805823.5785232,-186
1756805823.5815241,-59
1756805823.5824645,37
1756805823.584476,43
1756805823.588604,4
1756805823.5888472,-18
1756805823.5902712,-35
1756805823.5922992,-80
1756805823.5942116,-136
1756805823.5970616,-147
1756805823.598828,-107
1756805823.6003494,-83
1756805823.6022098,-135
1756805823.608182,-222
1756805823.6086538,-240
1756805823.6104035,-157
1756805823.6140857,-46
1756805823.6142704,-7
1756805823.6146061,-61
1756805823.6158402,-138
1756805823.6186526,-161
1756805823.6300519,-131
1756805823.6301873,-101
1756805823.6302814,-108
1756805823.6303716,-133
1756805823.6304624,-137
1756805823.6305525,-113
1756805823.6315668,-81
1756805823.6335537,-61
1756805823.6356564,-46
1756805823.637561,-18
1756805823.639346,16
1756805823.6419353,24
1756805823.6432545,-3
1756805823.6452317,-38
1756805823.6472602,-42
1756805823.649276,-25
1756805823.6511688,-36
1756805823.6532085,-100
1756805823.6552022,-181
1756805823.6571217,-213
1756805823.6590667,-180
1756805823.6611462,-138
1756805823.6632056,-147
1756805823.6651003,-204
1756805823.666964,-244
1756805823.669719,-217
1756805823.6709166,-142
1756805823.6728632,-83
1756805823.6748228,-78
1756805823.6778066,-111
1756805823.6788146,-146
1756805823.6807623,-157
1756805823.6828911,-144
1756805823.6846716,-112
1756805823.686566,-68
1756805823.6884913,-33
1756805823.6904435,-27
1756805823.6923988,-42
1756805823.6943655,-40
1756805823.6963198,-1
1756805823.6982808,48
1756805823.7006743,54
1756805823.703946,1
1756805823.7045805,-80
1756805823.706688,-151
1756805823.7265255,-209
1756805823.7286937,-273
1756805823.7288885,-334
1756805823.7289507,-352
1756805823.7290256,-316
1756805823.7294853,-267
1756805823.729531,-262
1756805823.7296314,-304
1756805823.729678,-340
1756805823.7298133,-320
1756805823.7298558,-257
1756805823.729897,-208
1756805823.7317514,-207
1756805823.7337298,-232
1756805823.736837,-249
1756805823.7378438,-246
1756805823.7405076,-241
1756805823.7442622,-248
1756805823.744655,-252
1756805823.746725,-244
1756805823.7478254,-245
1756805823.7496822,-290
1756805823.7513947,-376
1756805823.7533684,-450
1756805823.7553434,-456
1756805823.7574997,-402
1756805823.7605078,-349
1756805823.7615616,-339
1756805823.7635365,-364
1756805823.7652128,-386
1756805823.7681293,-386
1756805823.7692857,-378
1756805823.7711737,-370
1756805823.7755659,-367
1756805823.7757175,-384
1756805823.7769644,-445
1756805823.7793064,-544
1756805823.7838778,-611
1756805823.7839828,-572
1756805823.7852836,-435
1756805823.7868023,-316
1756805823.7888281,-308
1756805823.7908816,-394
1756805823.792726,-456
1756805823.7947063,-416
1756805823.7969272,-325
1756805823.7985892,-302
1756805823.8007019,-395
1756805823.8025448,-530
1756805823.8045862,-601
1756805823.8064952,-582
1756805823.80851,-542
1756805823.8169565,-558
1756805823.8171725,-630
1756805823.8173285,-688
1756805823.8175168,-686
1756805823.8193855,-650
1756805823.8204813,-649
1756805823.822319,-709
1756805823.8241372,-794
1756805823.8388848,-842
1756805823.8404546,-836
1756805823.840661,-810
1756805823.8408349,-801
1756805823.843638,-805
1756805823.843902,-790
1756805823.8440688,-739
1756805823.8442216,-684
1756805823.8492076,-661
1756805823.8495278,-663
1756805823.84973,-643
1756805823.8498864,-571
1756805823.8539813,-485
1756805823.854181,-458
1756805823.854339,-514
1756805823.856507,-587
1756805823.8577156,-587
1756805823.8596594,-493
1756805823.861691,-388
1756805823.863692,-354
1756805823.8661177,-381
1756805823.8674045,-387
1756805823.8694444,-322
1756805823.8713813,-221
1756805823.8734426,-145
1756805823.8753414,-101
1756805823.8772106,-59
1756805823.8790975,-9
1756805823.8973737,19
1756805823.8979335,3
1756805823.8981354,-32
1756805823.8983343,-49
1756805823.898532,-44
1756805823.8993073,-35
1756805823.8995168,-11
1756805823.8997123,45
1756805823.8999078,111
1756805823.9001026,137
1756805823.9030862,113
1756805823.9032893,107
1756805823.9051194,192
1756805823.9068608,344
1756805823.9087079,453
1756805823.9151087,438
1756805823.9154122,339
1756805823.9158864,267
1756805823.9174128,284
1756805823.9185562,356
1756805823.9205148,415
1756805823.9296925,417
1756805823.9303854,367
1756805823.9305985,304
1756805823.9307954,276
1756805823.931628,317
1756805823.9322836,398
1756805823.936985,440
1756805823.937214,397
1756805823.9382224,318
1756805823.9402575,300
1756805823.9420774,364
1756805823.9440627,426
1756805823.9464898,407
1756805823.9481206,335
1756805823.9512005,305
1756805823.951902,353
1756805823.9539258,413
1756805823.9558678,413
1756805823.957961,368
1756805823.964483,345
1756805823.9648674,359
1756805823.9663055,359
1756805823.966649,313
1756805823.9707134,268
1756805823.9709563,279
1756805823.9715967,318
1756805823.9736567,313
1756805823.9755182,250
1756805823.9774895,206
1756805823.9796093,246
1756805823.9822247,336
1756805823.9834607,378
1756805823.9854946,336
1756805823.9883394,274
1756805823.9893444,273
1756805823.9914575,324
1756805823.993295,352
1756805823.995245,316
1756805823.9972022,258
1756805823.9993727,241
1756805824.001136,278
1756805824.0031495,323
1756805824.00509,331
1756805824.0098774,306
1756805824.0102458,271
1756805824.0160205,240
1756805824.0164063,215
1756805824.0166984,211
1756805824.0194051,239
1756805824.0197947,283
1756805824.0246317,297
1756805824.0248804,246
1756805824.0250819,156
1756805824.0267448,109
1756805824.0286717,154
1756805824.0307336,253
1756805824.032614,299
1756805824.0363088,229
1756805824.0365138,89
1756805824.0384598,-19
1756805824.0406172,-31
1756805824.0424037,25
1756805824.0443583,72
1756805824.0464022,67
1756805824.048299,25
1756805824.0503194,-11
1756805824.0546162,-21
1756805824.054831,-9
1756805824.0562696,22
1756805824.058151,60
1756805824.0601618,75
1756805824.0622218,42
1756805824.0640364,-30
1756805824.0687408,-96
1756805824.0690014,-121
1756805824.0698993,-111
1756805824.0718384,-94
1756805824.073846,-90
1756805824.075726,-85
1756805824.0788064,-72
1756805824.0797691,-60
1756805824.0818155,-62
1756805824.0840151,-65
1756805824.0855815,-47
1756805824.0876234,-2
1756805824.0917194,45
1756805824.0919337,60
1756805824.0935597,31
1756805824.095478,-23
1756805824.0974658,-67
1756805824.099441,-81
1756805824.1013713,-60
1756805824.1034052,-35
1756805824.105335,-43
1756805824.1072717,-89
1756805824.1095195,-132
1756805824.1150897,-118
1756805824.1157417,-48
1756805824.1160517,12
1756805824.1247578,1
1756805824.1250064,-61
1756805824.125204,-89
1756805824.1253994,-38
1756805824.1255949,51
1756805824.126904,88
1756805824.1288192,39
1756805824.1318462,-40
1756805824.132826,-72
1756805824.134732,-44
1756805824.137347,-7
1756805824.1386132,-10
1756805824.1409159,-47
1756805824.1426816,-71
1756805824.1486468,-54
1756805824.1488762,-18
1756805824.1490738,-2
1756805824.1523786,-14
1756805824.1529818,-20
1756805824.1567564,5
1756805824.1573849,46
1756805824.1583586,62
1756805824.1604273,39
1756805824.162223,4
1756805824.1644025,0
1756805824.166183,39
1756805824.168403,85
1756805824.170117,99
1756805824.17212,80
1756805824.1746225,58
1756805824.1761286,69
1756805824.1780565,113
1756805824.1800601,149
1756805824.182676,139
1756805824.1842844,92
1756805824.185871,55
1756805824.1878722,66
1756805824.1903846,104
1756805824.1917667,115
1756805824.1937468,78
1756805824.1987462,39
1756805824.199006,53
1756805824.1996388,111
1756805824.2016115,158
1756805824.2036223,153
1756805824.2078474,121
1756805824.2084365,106
1756805824.209481,108
1756805824.2114913,88
1756805824.2134242,40
1756805824.2153208,5
1756805824.2173123,21
1756805824.219982,81
1756805824.2212148,133
1756805824.2233667,151
1756805824.230181,151
1756805824.2304685,160
1756805824.2306662,178
1756805824.2312481,193
1756805824.2439873,194
1756805824.2442265,182
1756805824.2444768,157
1756805824.2448275,113
1756805824.2450266,52
1756805824.2452815,-10
1756805824.24548,-56
1756805824.2479215,-73
1756805824.248709,-56
1756805824.2510014,-13
1756805824.2528338,29
1756805824.2547119,48
1756805824.2700658,44
1756805824.2702913,48
1756805824.2705114,76
1756805824.2707086,114
1756805824.2709029,123
1756805824.2712379,91
1756805824.271504,45
1756805824.2717762,23
1756805824.2724316,29
1756805824.2743473,37
1756805824.2784052,29
1756805824.2786338,25
1756805824.2803545,56
1756805824.2843983,117
1756805824.2846787,159
1756805824.2861578,142
1756805824.2884116,82
1756805824.2906582,36
1756805824.2919495,31
1756805824.293931,42
1756805824.295969,26
1756805824.299084,-12
1756805824.2998152,-34
1756805824.301831,-19
1756805824.3362951,-1
1756805824.3420267,-15
1756805824.342266,-52
1756805824.342463,-66
1756805824.3426857,-49
1756805824.3428872,-41
1756805824.3433836,-92
1756805824.3439682,-174
1756805824.3454328,-218
1756805824.3472738,-196
1756805824.3474948,-157
1756805824.347693,-159
1756805824.3478897,-195
1756805824.3480864,-198
1756805824.3482828,-135
1756805824.34848,-44
1756805824.3486736,6
1756805824.349021,-1
1756805824.3505774,-27
1756805824.3508403,-34
1756805824.3510387,-29
1756805824.3514502,-39
1756805824.3516574,-60
1756805824.3518555,-67
1756805824.352145,-53
1756805824.352995,-46
1756805824.369514,-69
1756805824.3699658,-100
1756805824.3704712,-90
1756805824.3772533,-25
1756805824.3795109,39
1756805824.3797834,38
1756805824.3800378,-25
1756805824.3803675,-82
1756805824.3806944,-82
1756805824.3809884,-37
1756805824.3816538,9
1756805824.3822541,41
1756805824.3824599,70
1756805824.3826873,106
1756805824.382883,127
1756805824.3865528,121
1756805824.3868144,120
1756805824.3886673,163
1756805824.3912792,232
1756805824.3924286,270
1756805824.3943086,246
1756805824.3964622,195
1756805824.3981292,166
1756805824.400097,167
1756805824.4020598,172
1756805824.4040303,177
1756805824.4064312,202
1756805824.4116178,251
1756805824.4118192,281
1756805824.411979,265
1756805824.4181528,231
1756805824.4182968,238
1756805824.4183805,285
1756805824.4198294,316
1756805824.4218574,291
1756805824.424144,238
1756805824.4257076,215
1756805824.4275837,234
1756805824.4309597,251
1756805824.431546,240
1756805824.4334645,225
1756805824.4359436,242
1756805824.4379427,280
1756805824.439572,297
1756805824.4414227,276
1756805824.4434195,247
1756805824.4453757,258
1756805824.4473078,314
1756805824.4493752,373
1756805824.4512188,387
1756805824.4531784,340
1756805824.4551935,261
1756805824.4572089,205
1756805824.46249,203
1756805824.4628997,229
1756805824.463035,234
1756805824.4687166,203
1756805824.468861,174
1756805824.468974,182
1756805824.4708467,212
1756805824.472845,222
1756805824.474758,210
1756805824.476732,224
1756805824.4786985,289
1756805824.4812155,355
1756805824.4826517,346
1756805824.484602,262
1756805824.4863825,186
1756805824.4883463,186
1756805824.4904535,215
1756805824.4935985,166
1756805824.4942408,1
1756805824.4970448,-206
1756805824.498177,-373
1756805824.5002637,-504
1756805824.5021224,-668
1756805824.504213,-889
1756805824.5060384,-1094
1756805824.5084152,-1196
1756805824.5099735,-1196
1756805824.5119462,-1186
1756805824.5139375,-1218
1756805824.5158832,-1234
1756805824.5194237,-1140
1756805824.519814,-921
1756805824.5224514,-670
1756805824.5238132,-481
1756805824.5257237,-355
1756805824.527666,-222
1756805824.5296638,-57
1756805824.5317914,88
1756805824.5337713,165
1756805824.5356565,199
1756805824.537643,256
1756805824.5410228,337
1756805824.5416343,380
1756805824.5437417,340
1756805824.5465996,254
1756805824.5475023,197
1756805824.5495558,199
1756805824.5514557,223
1756805824.5534184,230
1756805824.5601437,223
1756805824.5603976,212
1756805824.5607307,183
1756805824.5632865,133
1756805824.5667026,107
1756805824.5669353,152
1756805824.5672941,247
1756805824.5691288,305
1756805824.573758,263
1756805824.5741296,160
1756805824.5752208,91
1756805824.5769277,102
1756805824.5788999,155
1756805824.5808525,194
1756805824.5829067,204
1756805824.5848458,206
1756805824.5925138,212
1756805824.5929332,219
1756805824.593137,225
1756805824.5933335,234
1756805824.5951843,236
1756805824.59658,220
1756805824.5985217,190
1756805824.6005023,159
1756805824.603876,133
1756805824.6045,92
1756805824.6091888,31
1756805824.6114802,-22
1756805824.6129274,-31
1756805824.6136942,0
1756805824.6157866,27
1756805824.6164086,23
1756805824.61823,10
1756805824.6203797,21
1756805824.6326985,48
1756805824.6330826,60
1756805824.6340225,57
1756805824.6342213,74
1756805824.6344187,119
1756805824.6346147,141
1756805824.6348102,98
1756805824.6358914,26
1756805824.6379454,16
1756805824.63982,96
1756805824.6417964,183
1756805824.6438212,169
1756805824.6457841,53
1756805824.6477382,-58
1756805824.6497118,-71
1756805824.6516588,-7
1756805824.6536205,38
1756805824.6558301,1
1756805824.6581833,-82
1756805824.6594694,-134
1756805824.662402,-115
1756805824.663593,-63
1756805824.6662707,-42
1756805824.6674163,-79
1756805824.6836479,-151
1756805824.683915,-204
1756805824.6842458,-203
1756805824.6844482,-169
1756805824.6846445,-149
1756805824.6848526,-168
1756805824.6850493,-195
1756805824.6852443,-181
1756805824.6854408,-113
1756805824.6872134,-36
1756805824.6915805,-17
1756805824.6924727,-67
1756805824.692873,-125
1756805824.6979146,-125
1756805824.698321,-71
1756805824.699042,-40
1756805824.7009313,-104
1756805824.7061906,-241
1756805824.7070892,-352
1756805824.707478,-356
1756805824.7087462,-274
1756805824.7139652,-201
1756805824.7143261,-207
1756805824.7145486,-272
1756805824.7167997,-324
1756805824.7184985,-321
1756805824.7216148,-293
1756805824.7223809,-288
1756805824.724449,-314
1756805824.7269275,-354
1756805824.7286553,-387
1756805824.7326963,-418
1756805824.7329252,-442
1756805824.734194,-438
1756805824.7367759,-393
1756805824.738098,-328
1756805824.7400475,-284
1756805824.7422657,-287
1756805824.744031,-324
1756805824.745983,-371
1756805824.7479634,-412
1756805824.7499278,-439
1756805824.7518747,-452
1756805824.7538948,-455
1756805824.755796,-461
1756805824.757791,-480
1756805824.7597196,-510
1756805824.764441,-531
1756805824.7648163,-530
1756805824.7683594,-523
1756805824.768614,-530
1756805824.76961,-557
1756805824.7717066,-593
1756805824.773627,-635
1756805824.7784438,-685
1756805824.7795823,-742
1756805824.7797923,-784
1756805824.7813115,-787
1756805824.7839146,-759
1756805824.7852592,-737
1756805824.7872553,-750
1756805824.7894676,-779
1756805824.791291,-784
1756805824.7933416,-730
1756805824.795476,-633
1756805824.7974913,-545
1756805824.7993882,-506
1756805824.800987,-509
1756805824.803052,-524
1756805824.8048902,-526
1756805824.8068554,-508
1756805824.8088734,-492
1756805824.8113697,-497
1756805824.8155885,-522
1756805824.8158963,-542
1756805824.8167815,-530
1756805824.8187375,-476
1756805824.8207047,-397
1756805824.8226886,-328
1756805824.8258557,-284
1756805824.8265493,-252
1756805824.829079,-213
1756805824.8305347,-159
1756805824.8331769,-100
1756805824.8355346,-64
1756805824.8364816,-69
1756805824.8383148,-114
1756805824.8405774,-175
1756805824.8422654,-211
1756805824.8446043,-188
1756805824.8498,-105
1756805824.8553333,-9
1756805824.8557365,55
1756805824.8559577,88
1756805824.8562803,128
1756805824.8599322,197
1756805824.8601363,271
1756805824.8603315,311
1756805824.8623261,306
1756805824.8657827,300
1756805824.8660865,323
1756805824.883393,349
1756805824.8856802,329
1756805824.888426,263
1756805824.8886733,208
1756805824.8888707,219
1756805824.8890665,296
1756805824.8893034,373
1756805824.8895028,405
1756805824.8896987,399
1756805824.8898933,397
1756805824.8900895,426
1756805824.890285,476
1756805824.898734,521
1756805824.8989785,540
1756805824.8991966,523
1756805824.8994875,465
1756805824.899685,380
1756805824.9011967,311
1756805824.9034,302
1756805824.9051147,360
1756805824.9072165,441
1756805824.9091682,489
1756805824.9112935,480
1756805824.9130628,450
1756805824.9155414,446
1756805824.9170222,482
1756805824.9189572,527
1756805824.920913,535
