1756805814.80158,0,-406.0
1756805814.8026907,0,-447.0
1756805814.804586,0,-462.0
1756805814.8065708,0,-420.0
1756805814.8085365,0,-358.0
1756805814.8105397,0,-338.0
1756805814.8124795,0,-366.0
1756805814.8148093,0,-381.0
1756805814.8167453,0,-326.0
1756805814.8186312,0,-230.0
1756805814.8206525,0,-174.0
1756805814.8226879,0,-192.0
1756805814.8246257,0,-230.0
1756805814.8266642,0,-220.0
1756805814.829346,0,-167.0
1756805814.8306456,0,-137.0
1756805814.8324196,0,-162.0
1756805814.8345635,0,-199.0
1756805814.8364751,0,-181.0
1756805814.8383422,0,-103.0
1756805814.8403,0,-20.0
1756805814.84227,0,24.0
1756805814.8442428,0,49.0
1756805814.8463469,0,102.0
1756805814.8482206,0,188.0
1756805814.8505666,0,260.0
1756805814.8521476,0,272.0
1756805814.853971,0,232.0
1756805814.8561265,0,182.0
1756805814.858072,0,160.0
1756805814.8599644,0,169.0
1756805814.8619306,0,190.0
1756805814.8638868,0,209.0
1756805814.8658562,0,219.0
1756805814.867826,0,215.0
1756805814.8698347,0,203.0
1756805814.871814,0,202.0
1756805814.873616,0,229.0
1756805814.8757336,0,274.0
1756805814.877709,0,304.0
1756805814.8797245,0,302.0
1756805814.8820484,0,285.0
1756805814.883609,0,283.0
1756805814.8854985,0,298.0
1756805814.8875792,0,311.0
1756805814.8894913,0,311.0
1756805814.8914256,0,313.0
1756805814.893286,0,332.0
1756805814.89525,0,357.0
1756805814.8972356,0,365.0
1756805814.8992999,0,348.0
1756805814.9012425,0,335.0
1756805814.9033897,0,349.0
1756805814.905098,0,385.0
1756805814.907159,0,408.0
1756805814.909121,0,393.0
1756805814.91112,0,340.0
1756805814.9130514,0,281.0
1756805814.9157443,0,244.0
1756805814.9172485,0,242.0
1756805814.9191747,0,262.0
1756805814.9211905,0,273.0
1756805814.92322,0,252.0
1756805814.925112,0,214.0
1756805814.9270835,0,192.0
1756805814.9290416,0,208.0
1756805814.9310398,0,235.0
1756805814.9330137,0,232.0
1756805814.9349873,0,193.0
1756805814.9370503,0,150.0
1756805814.938878,0,127.0
1756805814.9408333,0,118.0
1756805814.9428437,0,91.0
1756805814.9447742,0,47.0
1756805814.9466586,0,20.0
1756805814.9487891,0,31.0
1756805814.9506648,0,65.0
1756805814.9526694,0,88.0
1756805814.9545922,0,89.0
1756805814.9565768,0,94.0
1756805814.9585495,0,119.0
1756805814.9604914,0,145.0
1756805814.9624987,0,139.0
1756805814.9644115,0,90.0
1756805814.9664078,0,22.0
1756805814.9688,0,-41.0
1756805814.970308,0,-94.0
1756805814.9724529,0,-143.0
1756805814.974257,0,-199.0
1756805814.976362,0,-281.0
1756805814.9782023,0,-417.0
1756805814.9800618,0,-619.0
1756805814.9820232,0,-851.0
1756805814.9841607,0,-1046.0
1756805814.9858737,0,-1172.0
1756805814.987915,0,-1269.0
1756805814.9903548,0,-1385.0
1756805814.9919472,0,-1499.0
1756805814.9939878,0,-1532.0
1756805814.995833,0,-1439.0
1756805814.99774,0,-1269.0
1756805815.0063221,0,-1111.0
1756805815.0072005,0,-988.0
1756805815.007799,0,-842.0
1756805815.0083869,0,-635.0
1756805815.009356,0,-413.0
1756805815.009961,0,-255.0
1756805815.0114937,0,-177.0
1756805815.0134468,0,-112.0
1756805815.0155628,0,-10.0
1756805815.017941,0,99.0
1756805815.0193157,0,141.0
1756805815.0213432,0,89.0
1756805815.0235512,0,-11.0
1756805815.0254397,0,-98.0
1756805815.0276992,0,-160.0
1756805815.0291045,0,-225.0
1756805815.0311675,0,-311.0
1756805815.0331888,0,-404.0
1756805815.0350862,0,-483.0
1756805815.0372288,0,-538.0
1756805815.0390599,0,-577.0
1756805815.040893,0,-606.0
1756805815.0431068,0,-626.0
1756805815.044918,0,-636.0
1756805815.0470154,0,-645.0
1756805815.0491338,0,-671.0
1756805815.0508974,0,-730.0
1756805815.053062,0,-827.0
1756805815.0548346,0,-933.0
1756805815.057337,0,-1010.0
1756805815.0594397,0,-1051.0
1756805815.0607207,0,-1074.0
1756805815.062826,0,-1108.0
1756805815.0646603,0,-1137.0
1756805815.0665674,0,-1123.0
1756805815.0690112,0,-1065.0
1756805815.0703719,0,-1017.0
1756805815.0727417,0,-1029.0
1756805815.0745096,0,-1084.0
1756805815.0765896,0,-1114.0
1756805815.0786502,0,-1087.0
1756805815.0806522,0,-1053.0
1756805815.0824044,0,-1090.0
1756805815.0843298,0,-1202.0
1756805815.0865622,0,-1297.0
1756805815.088235,0,-1289.0
1756805815.0902896,0,-1187.0
1756805815.0932975,0,-1092.0
1756805815.0960603,0,-1079.0
1756805815.0977027,0,-1129.0
1756805815.098613,0,-1161.0
1756805815.1000807,0,-1125.0
1756805815.1018157,0,-1057.0
1756805815.106395,0,-1030.0
1756805815.1070018,0,-1077.0
1756805815.1079237,0,-1161.0
1756805815.1099896,0,-1218.0
1756805815.112033,0,-1220.0
1756805815.11332,0,-1199.0
1756805815.1152287,0,-1201.0
1756805815.1172242,0,-1237.0
1756805815.1193182,0,-1268.0
1756805815.1211867,0,-1255.0
1756805815.123139,0,-1205.0
1756805815.1251104,0,-1160.0
1756805815.1269603,0,-1150.0
1756805815.1290467,0,-1158.0
1756805815.1310384,0,-1156.0
1756805815.1330156,0,-1149.0
1756805815.134937,0,-1166.0
1756805815.1369371,0,-1210.0
1756805815.1389334,0,-1236.0
1756805815.1408343,0,-1188.0
1756805815.1428337,0,-1093.0
1756805815.1448033,0,-1036.0
1756805815.1467304,0,-1069.0
1756805815.1487322,0,-1146.0
1756805815.1507065,0,-1164.0
1756805815.1526423,0,-1090.0
1756805815.1546304,0,-998.0
1756805815.1566012,0,-985.0
1756805815.1585758,0,-1069.0
1756805815.1604939,0,-1167.0
1756805815.1625106,0,-1189.0
1756805815.164418,0,-1123.0
1756805815.1664174,0,-1037.0
1756805815.1683915,0,-1003.0
1756805815.1703165,0,-1030.0
1756805815.1722882,0,-1070.0
1756805815.1742892,0,-1076.0
1756805815.1761966,0,-1049.0
1756805815.1780868,0,-1034.0
1756805815.1802506,0,-1067.0
1756805815.1821241,0,-1143.0
1756805815.1841133,0,-1214.0
1756805815.1860723,0,-1237.0
1756805815.1881802,0,-1204.0
1756805815.1900105,0,-1146.0
1756805815.1919851,0,-1103.0
1756805815.1939085,0,-1094.0
1756805815.1958766,0,-1101.0
1756805815.197892,0,-1082.0
1756805815.1998076,0,-1004.0
1756805815.201816,0,-900.0
1756805815.203789,0,-837.0
1756805815.2064419,0,-859.0
1756805815.2076986,0,-929.0
1756805815.2097876,0,-968.0
1756805815.2116072,0,-937.0
1756805815.2135983,0,-881.0
1756805815.2155387,0,-871.0
1756805815.2174919,0,-914.0
1756805815.2195547,0,-956.0
1756805815.2213197,0.7412109375,-956.0
1756805815.221435,0.7412109375,-951.0
1756805815.2233877,0.7412109375,-917.0
1756805815.2253606,0.7412109375,-903.0
1756805815.2272093,0.7412109375,-924.0
1756805815.2293105,0.7412109375,-957.0
1756805815.2313373,0.7412109375,-966.0
1756805815.2332265,0.7412109375,-951.0
1756805815.2350452,0.7412109375,-933.0
1756805815.2370403,0.7412109375,-932.0
1756805815.239017,0.7412109375,-949.0
1756805815.2410238,0.7412109375,-969.0
1756805815.2429824,0.7412109375,-975.0
1756805815.2449265,0.7412109375,-963.0
1756805815.2469115,0.7412109375,-955.0
1756805815.2488272,0.7412109375,-978.0
1756805815.2508528,0.7412109375,-1028.0
1756805815.2527618,0.7412109375,-1063.0
1756805815.2548804,0.7412109375,-1051.0
1756805815.2568486,0.7412109375,-1012.0
1756805815.2587428,0.7412109375,-999.0
1756805815.2608557,0.7412109375,-1032.0
1756805815.262006,0.391845703125,-1032.0
1756805815.2626653,0.391845703125,-1067.0
1756805815.264608,0.391845703125,-1061.0
1756805815.2666714,0.391845703125,-1026.0
1756805815.2685769,0.391845703125,-1005.0
1756805815.2705953,0.391845703125,-1015.0
1756805815.2725194,0.391845703125,-1027.0
1756805815.274539,0.391845703125,-1009.0
1756805815.2764592,0.391845703125,-981.0
1756805815.2783706,0.391845703125,-975.0
1756805815.2805457,0.391845703125,-982.0
1756805815.2823768,0.391845703125,-968.0
1756805815.2844765,0.391845703125,-930.0
1756805815.2863343,0.391845703125,-897.0
1756805815.2884412,0.391845703125,-891.0
1756805815.290256,0.391845703125,-890.0
1756805815.292555,0.391845703125,-858.0
1756805815.294163,0.391845703125,-800.0
1756805815.2963207,0.391845703125,-748.0
1756805815.298128,0.391845703125,-716.0
1756805815.3003147,0.391845703125,-680.0
1756805815.3023474,0.391845703125,-616.0
1756805815.3038383,0.391845703125,-549.0
1756805815.305822,0.391845703125,-527.0
1756805815.30671,0.1605224609375,-527.0
1756805815.307947,0.1605224609375,-550.0
1756805815.3099182,0.1605224609375,-559.0
1756805815.3118114,0.1605224609375,-501.0
1756805815.3138442,0.1605224609375,-387.0
1756805815.3158288,0.1605224609375,-290.0
1756805815.3177493,0.1605224609375,-268.0
1756805815.3197417,0.1605224609375,-302.0
1756805815.3217115,0.1605224609375,-319.0
1756805815.323636,0.1605224609375,-260.0
1756805815.3256075,0.1605224609375,-138.0
1756805815.327608,0.1605224609375,-28.0
1756805815.3294888,0.1605224609375,-5.0
1756805815.3315334,0.1605224609375,-73.0
1756805815.3341568,0.1605224609375,-162.0
1756805815.3354137,0.1605224609375,-195.0
1756805815.3373873,0.1605224609375,-151.0
1756805815.3394058,0.1605224609375,-87.0
1756805815.3413923,0.1605224609375,-65.0
1756805815.3432565,0.1605224609375,-85.0
1756805815.3434978,0.022064208984375,-85.0
1756805815.3453012,0.022064208984375,-90.0
1756805815.347253,0.022064208984375,-33.0
1756805815.3491595,0.022064208984375,70.0
1756805815.3511999,0.022064208984375,158.0
1756805815.35313,0.022064208984375,194.0
1756805815.3550715,0.022064208984375,198.0
1756805815.3570945,0.022064208984375,210.0
1756805815.3590152,0.022064208984375,235.0
1756805815.3610182,0.022064208984375,237.0
1756805815.3630106,0.022064208984375,191.0
1756805815.3650312,0.022064208984375,126.0
1756805815.3668833,0.022064208984375,98.0
1756805815.368854,0.022064208984375,128.0
1756805815.3708377,0.022064208984375,184.0
1756805815.3727787,0.022064208984375,219.0
1756805815.374733,0.022064208984375,227.0
1756805815.376735,0.022064208984375,232.0
1756805815.3787215,0.022064208984375,249.0
1756805815.380695,0.022064208984375,262.0
1756805815.3826368,0.022064208984375,256.0
1756805815.384561,0.022064208984375,243.0
1756805815.386576,0.022064208984375,241.0
1756805815.3884592,0.022064208984375,237.0
1756805815.3904994,0.022064208984375,205.0
1756805815.392474,0.022064208984375,150.0
1756805815.3938174,-0.119873046875,150.0
1756805815.3943465,-0.119873046875,116.0
1756805815.3971813,-0.119873046875,142.0
1756805815.3982954,-0.119873046875,203.0
1756805815.4002728,-0.119873046875,240.0
1756805815.4022574,-0.119873046875,227.0
1756805815.4042308,-0.119873046875,196.0
1756805815.4061906,-0.119873046875,193.0
1756805815.4083874,-0.119873046875,219.0
1756805815.410163,-0.119873046875,239.0
1756805815.4120522,-0.119873046875,230.0
1756805815.4140868,-0.119873046875,200.0
1756805815.4160442,-0.119873046875,176.0
1756805815.4180105,-0.119873046875,171.0
1756805815.4199424,-0.119873046875,183.0
1756805815.4219167,-0.119873046875,204.0
1756805815.42391,-0.119873046875,223.0
1756805815.4259038,-0.119873046875,223.0
1756805815.427941,-0.119873046875,198.0
1756805815.4298058,-0.119873046875,161.0
1756805815.4317775,-0.119873046875,137.0
1756805815.4337516,-0.119873046875,141.0
1756805815.4356759,-0.119873046875,163.0
1756805815.437692,-0.119873046875,179.0
1756805815.4396071,-0.119873046875,169.0
1756805815.441076,-0.2099609375,169.0
1756805815.441557,-0.2099609375,135.0
1756805815.4435728,-0.2099609375,97.0
1756805815.4455101,-0.2099609375,85.0
1756805815.4474535,-0.2099609375,114.0
1756805815.449391,-0.2099609375,170.0
1756805815.4514074,-0.2099609375,210.0
1756805815.4533968,-0.2099609375,197.0
1756805815.4553287,-0.2099609375,139.0
1756805815.4572997,-0.2099609375,87.0
1756805815.459306,-0.2099609375,79.0
1756805815.4612188,-0.2099609375,102.0
1756805815.463237,-0.2099609375,114.0
1756805815.4651716,-0.2099609375,88.0
1756805815.467165,-0.2099609375,39.0
1756805815.4690962,-0.2099609375,-1.0
1756805815.4710865,-0.2099609375,-18.0
1756805815.4730585,-0.2099609375,-19.0
1756805815.475029,-0.2099609375,-17.0
1756805815.476953,-0.2099609375,-25.0
1756805815.4789665,-0.2099609375,-46.0
1756805815.480887,-0.2099609375,-79.0
1756805815.4829211,-0.2099609375,-109.0
1756805815.48485,-0.2099609375,-119.0
1756805815.486795,-0.2099609375,-105.0
1756805815.4887025,-0.2099609375,-84.0
1756805815.490707,-0.2099609375,-85.0
1756805815.4927025,-0.2099609375,-112.0
1756805815.4936578,-0.337890625,-112.0
1756805815.4946713,-0.337890625,-142.0
1756805815.49657,-0.337890625,-150.0
1756805815.4986324,-0.337890625,-138.0
1756805815.5005722,-0.337890625,-129.0
1756805815.502513,-0.337890625,-144.0
1756805815.5044682,-0.337890625,-172.0
1756805815.5064764,-0.337890625,-192.0
1756805815.50845,-0.337890625,-191.0
1756805815.510411,-0.337890625,-178.0
1756805815.5124266,-0.337890625,-165.0
1756805815.5143077,-0.337890625,-161.0
1756805815.516313,-0.337890625,-166.0
1756805815.518185,-0.337890625,-179.0
1756805815.5201926,-0.337890625,-192.0
1756805815.5222247,-0.337890625,-194.0
1756805815.5241559,-0.337890625,-174.0
1756805815.5261452,-0.337890625,-138.0
1756805815.5280626,-0.337890625,-112.0
1756805815.53001,-0.337890625,-118.0
1756805815.532025,-0.337890625,-148.0
1756805815.5339985,-0.337890625,-175.0
1756805815.5358865,-0.337890625,-186.0
1756805815.5379367,-0.337890625,-195.0
1756805815.5398479,-0.337890625,-223.0
1756805815.5417209,-0.48974609375,-223.0
1756805815.5418332,-0.48974609375,-268.0
1756805815.5438194,-0.48974609375,-296.0
1756805815.545813,-0.48974609375,-276.0
1756805815.5477283,-0.48974609375,-218.0
1756805815.549684,-0.48974609375,-172.0
1756805815.5516865,-0.48974609375,-176.0
1756805815.5536106,-0.48974609375,-218.0
1756805815.5555847,-0.48974609375,-245.0
1756805815.5574863,-0.48974609375,-218.0
1756805815.5594442,-0.48974609375,-149.0
1756805815.5614767,-0.48974609375,-94.0
1756805815.5634582,-0.48974609375,-95.0
1756805815.565407,-0.48974609375,-154.0
1756805815.5673668,-0.48974609375,-230.0
1756805815.5693603,-0.48974609375,-280.0
1756805815.571491,-0.48974609375,-291.0
1756805815.573309,-0.48974609375,-286.0
1756805815.575282,-0.48974609375,-297.0
1756805815.5772316,-0.48974609375,-329.0
1756805815.5791774,-0.48974609375,-359.0
1756805815.58753,-0.48974609375,-362.0
1756805815.5878654,-0.48974609375,-342.0
1756805815.5901322,-0.48974609375,-319.0
1756805815.590367,-0.48974609375,-297.0
1756805815.590564,-0.48974609375,-263.0
1756805815.5909522,-0.48974609375,-216.0
1756805815.5934093,-0.48974609375,-185.0
1756805815.5950894,-0.48974609375,-202.0
1756805815.5970592,-0.48974609375,-251.0
1756805815.598369,-0.681640625,-251.0
1756805815.5989625,-0.681640625,-273.0
1756805815.6009188,-0.681640625,-228.0
1756805815.6037414,-0.681640625,-151.0
1756805815.604944,-0.681640625,-115.0
1756805815.606952,-0.681640625,-161.0
1756805815.6105943,-0.681640625,-251.0
1756805815.611959,-0.681640625,-299.0
1756805815.6124501,-0.681640625,-264.0
1756805815.6147628,-0.681640625,-180.0
1756805815.6174383,-0.681640625,-119.0
1756805815.6183546,-0.681640625,-119.0
1756805815.6203268,-0.681640625,-149.0
1756805815.622302,-0.681640625,-155.0
1756805815.6243627,-0.681640625,-120.0
1756805815.6282022,-0.681640625,-77.0
1756805815.6284256,-0.681640625,-65.0
1756805815.6303039,-0.681640625,-92.0
1756805815.6322162,-0.681640625,-132.0
1756805815.6346252,-0.681640625,-163.0
1756805815.6360354,-0.681640625,-189.0
1756805815.6389396,-0.681640625,-214.0
1756805815.6401129,-0.681640625,-226.0
1756805815.6420674,-0.681640625,-209.0
1756805815.6452324,-0.681640625,-183.0
1756805815.6459453,-0.681640625,-180.0
1756805815.6479814,-0.681640625,-204.0
1756805815.6490078,-0.853515625,-204.0
1756805815.65105,-0.853515625,-219.0
1756805815.6573594,-0.853515625,-190.0
1756805815.6735916,-0.853515625,-134.0
1756805815.675615,-0.853515625,-102.0
1756805815.67582,-0.853515625,-116.0
1756805815.676474,-0.853515625,-147.0
1756805815.6766748,-0.853515625,-161.0
1756805815.6768708,-0.853515625,-156.0
1756805815.67723,-0.853515625,-157.0
1756805815.677467,-0.853515625,-164.0
1756805815.6777008,-0.853515625,-159.0
1756805815.679708,-0.853515625,-135.0
1756805815.6800065,-0.853515625,-117.0
1756805815.6802237,-0.853515625,-123.0
1756805815.6804214,-0.853515625,-140.0
1756805815.6808007,-0.853515625,-133.0
1756805815.687226,-0.853515625,-97.0
1756805815.6874604,-0.853515625,-67.0
1756805815.6876566,-0.853515625,-76.0
1756805815.6879668,-0.853515625,-106.0
1756805815.6895878,-0.853515625,-116.0
1756805815.6912096,-0.853515625,-87.0
1756805815.6931052,-0.853515625,-50.0
1756805815.6956832,-0.9765625,-50.0
1756805815.6993327,-0.9765625,-52.0
1756805815.7219563,-0.9765625,-103.0
1756805815.7237787,-0.9765625,-163.0
1756805815.7240286,-0.9765625,-187.0
1756805815.7242315,-0.9765625,-178.0
1756805815.72443,-0.9765625,-176.0
1756805815.7246442,-0.9765625,-204.0
1756805815.724846,-0.9765625,-233.0
1756805815.7250412,-0.9765625,-218.0
1756805815.7252376,-0.9765625,-158.0
1756805815.7254329,-0.9765625,-105.0
1756805815.7256286,-0.9765625,-100.0
1756805815.725824,-0.9765625,-131.0
1756805815.7266366,-0.9765625,-162.0
1756805815.7294025,-0.9765625,-181.0
1756805815.7300038,-0.9765625,-220.0
1756805815.730643,-0.9765625,-289.0
1756805815.7309842,-0.9765625,-352.0
1756805815.731401,-0.9765625,-360.0
1756805815.7391248,-0.9765625,-327.0
1756805815.7393727,-0.9765625,-304.0
1756805815.7395725,-0.9765625,-324.0
1756805815.739768,-0.9765625,-343.0
1756805815.744956,-0.9765625,-292.0
1756805815.7452767,-0.9765625,-177.0
1756805815.745474,-0.9765625,-90.0
1756805815.7461433,-0.9765625,-108.0
1756805815.7482646,-0.9765625,-205.0
1756805815.750058,-0.9765625,-276.0
1756805815.7520256,-0.9765625,-254.0
1756805815.7540429,-0.9765625,-185.0
1756805815.7555654,-1.0322265625,-185.0
1756805815.7559693,-1.0322265625,-170.0
1756805815.7580204,-1.0322265625,-242.0
1756805815.7615733,-1.0322265625,-328.0
1756805815.762796,-1.0322265625,-327.0
1756805815.7638428,-1.0322265625,-227.0
1756805815.76694,-1.0322265625,-123.0
1756805815.7680702,-1.0322265625,-104.0
1756805815.7698998,-1.0322265625,-168.0
1756805815.7718546,-1.0322265625,-231.0
1756805815.7740257,-1.0322265625,-222.0
1756805815.7770844,-1.0322265625,-156.0
1756805815.7778742,-1.0322265625,-98.0
1756805815.7798178,-1.0322265625,-93.0
1756805815.7850182,-1.0322265625,-128.0
1756805815.7861881,-1.0322265625,-162.0
1756805815.7869735,-1.0322265625,-164.0
1756805815.7874124,-1.0322265625,-112.0
1756805815.7932038,-1.0322265625,-13.0
1756805815.7937758,-1.0263671875,-13.0
1756805815.7985501,-1.0263671875,94.0
1756805815.7987607,-1.0263671875,141.0
1756805815.7989562,-1.0263671875,92.0
1756805815.7992013,-1.0263671875,-6.0
1756805815.8031652,-1.0263671875,-56.0
1756805815.803369,-1.0263671875,-5.0
1756805815.803563,-1.0263671875,93.0
1756805815.810016,-1.0263671875,149.0
1756805815.8102567,-1.0263671875,127.0
1756805815.8104522,-1.0263671875,80.0
1756805815.8113265,-1.0263671875,74.0
1756805815.8130164,-1.0263671875,105.0
1756805815.8153548,-1.0263671875,124.0
1756805815.8201346,-1.0263671875,117.0
1756805815.8203983,-1.0263671875,119.0
1756805815.8208156,-1.0263671875,160.0
1756805815.82287,-1.0263671875,200.0
1756805815.8248103,-1.0263671875,171.0
1756805815.826815,-1.0263671875,73.0
1756805815.828824,-1.0263671875,-5.0
1756805815.8306603,-1.0263671875,32.0
1756805815.8326929,-1.0263671875,172.0
1756805815.8348014,-1.0263671875,298.0
1756805815.8366935,-1.0263671875,309.0
1756805815.8386471,-1.0263671875,221.0
1756805815.8405194,-1.0263671875,141.0
1756805815.8425353,-1.0263671875,149.0
1756805815.8446918,-1.0263671875,219.0
1756805815.8456602,-0.974609375,219.0
1756805815.8465142,-0.974609375,262.0
1756805815.8486261,-0.974609375,237.0
1756805815.8511229,-0.974609375,179.0
1756805815.8550575,-0.974609375,140.0
1756805815.8554463,-0.974609375,132.0
1756805815.8563042,-0.974609375,135.0
1756805815.8614519,-0.974609375,144.0
1756805815.8875275,-0.974609375,179.0
1756805815.8890948,-0.974609375,237.0
1756805815.889701,-0.974609375,268.0
1756805815.889956,-0.974609375,232.0
1756805815.8901942,-0.974609375,152.0
1756805815.8904433,-0.974609375,93.0
1756805815.8907504,-0.974609375,91.0
1756805815.8909993,-0.974609375,109.0
1756805815.8939292,-0.90283203125,109.0
1756805815.8951018,-0.90283203125,92.0
1756805815.8976512,-0.90283203125,34.0
1756805815.8981576,-0.90283203125,-13.0
1756805815.8986123,-0.90283203125,3.0
1756805815.899064,-0.90283203125,70.0
1756805815.8994236,-0.90283203125,140.0
1756805815.8996222,-0.90283203125,171.0
1756805815.899817,-0.90283203125,163.0
1756805815.9000118,-0.90283203125,151.0
1756805815.9002066,-0.90283203125,157.0
1756805815.9004018,-0.90283203125,175.0
1756805815.9005957,-0.90283203125,170.0
1756805815.9007888,-0.90283203125,126.0
1756805815.9014015,-0.90283203125,57.0
1756805815.9033852,-0.90283203125,-3.0
1756805815.9079173,-0.90283203125,-45.0
1756805815.910705,-0.90283203125,-98.0
1756805815.910954,-0.90283203125,-197.0
1756805815.9112928,-0.90283203125,-339.0
1756805815.9134073,-0.90283203125,-498.0
1756805815.9177938,-0.90283203125,-653.0
1756805815.9181337,-0.90283203125,-812.0
1756805815.9191508,-0.90283203125,-976.0
1756805815.921121,-0.90283203125,-1120.0
1756805815.9231782,-0.90283203125,-1209.0
1756805815.9251533,-0.90283203125,-1237.0
1756805815.927201,-0.90283203125,-1237.0
1756805815.929018,-0.90283203125,-1223.0
1756805815.9357083,-0.90283203125,-1161.0
1756805815.936205,-0.90283203125,-1004.0
1756805815.9376113,-0.90283203125,-755.0
1756805815.9378226,-0.90283203125,-485.0
1756805815.938768,-0.90283203125,-269.0
1756805815.9409108,-0.90283203125,-121.0
1756805815.9415321,-0.83984375,-121.0
1756805815.94271,-0.83984375,10.0
1756805815.9447365,-0.83984375,166.0
1756805815.9467149,-0.83984375,335.0
1756805815.9486587,-0.83984375,457.0
1756805815.950664,-0.83984375,490.0
1756805815.961982,-0.83984375,445.0
1756805815.9641573,-0.83984375,379.0
1756805815.9897947,-0.83984375,338.0
1756805815.9981806,-0.83203125,338.0
1756805816.0166385,-0.83203125,326.0
1756805816.017945,-0.83203125,325.0
1756805816.018352,-0.83203125,324.0
1756805816.0195832,-0.83203125,327.0
1756805816.0198085,-0.83203125,340.0
1756805816.0203502,-0.83203125,357.0
1756805816.020556,-0.83203125,365.0
1756805816.020762,-0.83203125,364.0
1756805816.0209565,-0.83203125,372.0
1756805816.0212073,-0.83203125,395.0
1756805816.0214155,-0.83203125,411.0
1756805816.0228639,-0.83203125,385.0
1756805816.0234797,-0.83203125,317.0
1756805816.023696,-0.83203125,245.0
1756805816.0239043,-0.83203125,213.0
1756805816.0275922,-0.83203125,230.0
1756805816.0356023,-0.83203125,267.0
1756805816.035879,-0.83203125,293.0
1756805816.0365615,-0.83203125,308.0
1756805816.0367687,-0.83203125,335.0
1756805816.0370214,-0.83203125,391.0
1756805816.0372157,-0.83203125,461.0
1756805816.0374243,-0.83203125,507.0
1756805816.037619,-0.83203125,503.0
1756805816.0378292,-0.83203125,450.0
1756805816.0391126,-0.83203125,387.0
1756805816.0395894,-0.83203125,351.0
1756805816.0399268,-0.83203125,353.0
1756805816.040375,-0.83203125,372.0
1756805816.0405715,-0.83203125,374.0
1756805816.0408015,-0.83203125,351.0
1756805816.041002,-0.83203125,327.0
1756805816.0411973,-0.83203125,330.0
1756805816.0413926,-0.83203125,356.0
1756805816.0415947,-0.83203125,370.0
1756805816.041806,-0.83203125,347.0
1756805816.0421288,-0.83203125,298.0
1756805816.0426753,-0.83203125,255.0
1756805816.0433538,-0.83203125,235.0
1756805816.0435681,-0.83203125,231.0
1756805816.0437636,-0.83203125,227.0
1756805816.043969,-0.83203125,221.0
1756805816.0444393,-0.83203125,219.0
1756805816.044636,-0.83203125,230.0
1756805816.044914,-0.83203125,251.0
1756805816.0470457,-0.83203125,273.0
1756805816.0484054,-0.84912109375,273.0
1756805816.048814,-0.84912109375,293.0
1756805816.0507874,-0.84912109375,308.0
1756805816.0567555,-0.84912109375,320.0
1756805816.0579894,-0.84912109375,323.0
1756805816.0582228,-0.84912109375,309.0
1756805816.0586593,-0.84912109375,276.0
1756805816.060751,-0.84912109375,242.0
1756805816.0706904,-0.84912109375,230.0
1756805816.071147,-0.84912109375,252.0
1756805816.071361,-0.84912109375,286.0
1756805816.0715582,-0.84912109375,293.0
1756805816.0717642,-0.84912109375,263.0
1756805816.0725021,-0.84912109375,230.0
1756805816.0745134,-0.84912109375,229.0
1756805816.0765934,-0.84912109375,255.0
1756805816.0784328,-0.84912109375,267.0
1756805816.0807023,-0.84912109375,238.0
1756805816.0822577,-0.84912109375,185.0
1756805816.0917127,-0.84912109375,153.0
1756805816.0924637,-0.84912109375,149.0
1756805816.0927227,-0.84912109375,159.0
1756805816.0929277,-0.84912109375,171.0
1756805816.0931346,-0.84912109375,188.0
1756805816.0935888,-0.87939453125,188.0
1756805816.0941174,-0.87939453125,210.0
1756805816.115981,-0.87939453125,211.0
1756805816.1165175,-0.87939453125,170.0
1756805816.1168597,-0.87939453125,102.0
1756805816.1175103,-0.87939453125,51.0
1756805816.1194944,-0.87939453125,41.0
1756805816.119796,-0.87939453125,54.0
1756805816.120134,-0.87939453125,53.0
1756805816.1203718,-0.87939453125,29.0
1756805816.1205707,-0.87939453125,2.0
1756805816.1207669,-0.87939453125,-7.0
1756805816.1211786,-0.87939453125,0.0
1756805816.1215148,-0.87939453125,12.0
1756805816.123325,-0.87939453125,24.0
1756805816.1250126,-0.87939453125,33.0
1756805816.125465,-0.87939453125,30.0
1756805816.1257534,-0.87939453125,0.0
1756805816.1274478,-0.87939453125,-51.0
1756805816.1295595,-0.87939453125,-92.0
1756805816.1388535,-0.87939453125,-106.0
1756805816.1396856,-0.87939453125,-106.0
1756805816.1399002,-0.87939453125,-115.0
1756805816.1400974,-0.87939453125,-138.0
1756805816.1411629,-0.87939453125,-146.0
1756805816.1413684,-0.87939453125,-120.0
1756805816.1417992,-0.7900390625,-120.0
1756805816.1432886,-0.7900390625,-86.0
1756805816.1453931,-0.7900390625,-97.0
1756805816.1487799,-0.7900390625,-169.0
1756805816.1490476,-0.7900390625,-251.0
1756805816.1527019,-0.7900390625,-270.0
1756805816.1542034,-0.7900390625,-224.0
1756805816.156226,-0.7900390625,-186.0
1756805816.1571279,-0.7900390625,-225.0
1756805816.1644678,-0.7900390625,-318.0
1756805816.1647632,-0.7900390625,-368.0
1756805816.1649632,-0.7900390625,-321.0
1756805816.1651602,-0.7900390625,-234.0
1756805816.1670477,-0.7900390625,-203.0
1756805816.169329,-0.7900390625,-261.0
1756805816.1713293,-0.7900390625,-343.0
1756805816.172676,-0.7900390625,-382.0
1756805816.1746533,-0.7900390625,-382.0
1756805816.1765919,-0.7900390625,-400.0
1756805816.1786375,-0.7900390625,-460.0
1756805816.1805599,-0.7900390625,-521.0
1756805816.1824799,-0.7900390625,-535.0
1756805816.184577,-0.7900390625,-509.0
1756805816.1864839,-0.7900390625,-488.0
1756805816.1885784,-0.7900390625,-500.0
1756805816.191937,-0.7900390625,-523.0
1756805816.1925669,-0.7900390625,-521.0
1756805816.194276,-0.62841796875,-521.0
1756805816.1942825,-0.62841796875,-492.0
1756805816.1966596,-0.62841796875,-464.0
1756805816.1994762,-0.62841796875,-465.0
1756805816.201,-0.62841796875,-490.0
1756805816.2021468,-0.62841796875,-517.0
1756805816.204134,-0.62841796875,-526.0
1756805816.20626,-0.62841796875,-521.0
1756805816.2080414,-0.62841796875,-514.0
1756805816.210132,-0.62841796875,-502.0
1756805816.2347832,-0.62841796875,-478.0
1756805816.2362554,-0.62841796875,-446.0
1756805816.2367728,-0.62841796875,-424.0
1756805816.237019,-0.62841796875,-427.0
1756805816.2372499,-0.62841796875,-446.0
1756805816.2375493,-0.62841796875,-451.0
1756805816.2383783,-0.62841796875,-421.0
1756805816.2386878,-0.62841796875,-368.0
1756805816.2389412,-0.62841796875,-325.0
1756805816.2391925,-0.62841796875,-313.0
1756805816.2413917,-0.401611328125,-313.0
1756805816.2428002,-0.401611328125,-317.0
1756805816.2430007,-0.401611328125,-301.0
1756805816.2431972,-0.401611328125,-248.0
1756805816.2433925,-0.401611328125,-176.0
1756805816.2435875,-0.401611328125,-119.0
1756805816.243782,-0.401611328125,-96.0
1756805816.2447116,-0.401611328125,-84.0
1756805816.2454133,-0.401611328125,-48.0
1756805816.2474337,-0.401611328125,28.0
1756805816.2497268,-0.401611328125,115.0
1756805816.2513623,-0.401611328125,172.0
1756805816.2533236,-0.401611328125,182.0
1756805816.2552361,-0.401611328125,171.0
1756805816.257526,-0.401611328125,186.0
1756805816.2591949,-0.401611328125,239.0
1756805816.261322,-0.401611328125,297.0
1756805816.2635813,-0.401611328125,324.0
1756805816.2654524,-0.401611328125,322.0
1756805816.2671363,-0.401611328125,321.0
1756805816.2691407,-0.401611328125,341.0
1756805816.2720704,-0.401611328125,358.0
1756805816.2729685,-0.401611328125,355.0
1756805816.2754629,-0.401611328125,343.0
1756805816.2769284,-0.401611328125,360.0
1756805816.2788177,-0.401611328125,410.0
1756805816.2808137,-0.401611328125,450.0
1756805816.2827964,-0.401611328125,449.0
1756805816.2847347,-0.401611328125,432.0
1756805816.2867036,-0.401611328125,451.0
1756805816.2889254,-0.401611328125,522.0
1756805816.2932713,-0.1368408203125,522.0
1756805816.2947078,-0.1368408203125,602.0
1756805816.294945,-0.1368408203125,633.0
1756805816.2951403,-0.1368408203125,602.0
1756805816.2965002,-0.1368408203125,552.0
1756805816.2984905,-0.1368408203125,530.0
1756805816.3004684,-0.1368408203125,551.0
1756805816.3024988,-0.1368408203125,600.0
1756805816.3073153,-0.1368408203125,646.0
1756805816.3075383,-0.1368408203125,654.0
1756805816.3085287,-0.1368408203125,611.0
1756805816.3110628,-0.1368408203125,543.0
1756805816.3122516,-0.1368408203125,507.0
1756805816.3143642,-0.1368408203125,537.0
1756805816.3162663,-0.1368408203125,598.0
1756805816.3198025,-0.1368408203125,616.0
1756805816.3201087,-0.1368408203125,561.0
1756805816.321997,-0.1368408203125,492.0
1756805816.3263657,-0.1368408203125,484.0
1756805816.3269627,-0.1368408203125,536.0
1756805816.3279314,-0.1368408203125,578.0
1756805816.330012,-0.1368408203125,573.0
1756805816.3320417,-0.1368408203125,558.0
1756805816.3339386,-0.1368408203125,591.0
1756805816.335898,-0.1368408203125,649.0
1756805816.3382404,-0.1368408203125,663.0
1756805816.339819,-0.1368408203125,614.0
1756805816.3419912,-0.1368408203125,562.0
1756805816.3463542,-0.1368408203125,563.0
1756805816.3466463,-0.1368408203125,583.0
1756805816.3478022,-0.1368408203125,554.0
1756805816.3495886,-0.1368408203125,473.0
1756805816.3502405,0.09674072265625,473.0
1756805816.3515036,0.09674072265625,410.0
1756805816.3535461,0.09674072265625,417.0
1756805816.3554342,0.09674072265625,456.0
1756805816.3575072,0.09674072265625,464.0
1756805816.3603508,0.09674072265625,444.0
1756805816.3613336,0.09674072265625,448.0
1756805816.3633142,0.09674072265625,488.0
1756805816.3654242,0.09674072265625,506.0
1756805816.367301,0.09674072265625,458.0
1756805816.3810525,0.09674072265625,384.0
1756805816.3813982,0.09674072265625,364.0
1756805816.3817177,0.09674072265625,407.0
1756805816.3819194,0.09674072265625,436.0
1756805816.3821154,0.09674072265625,390.0
1756805816.3823102,0.09674072265625,303.0
1756805816.3825035,0.09674072265625,256.0
1756805816.38309,0.09674072265625,279.0
1756805816.3880384,0.09674072265625,320.0
1756805816.3883128,0.09674072265625,318.0
1756805816.3890545,0.09674072265625,271.0
1756805816.3933408,-0.08148193359375,271.0
1756805816.4136307,-0.08148193359375,230.0
1756805816.414019,-0.08148193359375,224.0
1756805816.4142613,-0.08148193359375,235.0
1756805816.414457,-0.08148193359375,230.0
1756805816.4146516,-0.08148193359375,208.0
1756805816.4148462,-0.08148193359375,199.0
1756805816.415041,-0.08148193359375,217.0
1756805816.4153628,-0.08148193359375,244.0
1756805816.415558,-0.08148193359375,243.0
1756805816.4157526,-0.08148193359375,211.0
1756805816.415971,-0.08148193359375,177.0
1756805816.416166,-0.08148193359375,173.0
1756805816.4163911,-0.08148193359375,192.0
1756805816.4166152,-0.08148193359375,203.0
1756805816.4184525,-0.08148193359375,188.0
1756805816.423698,-0.08148193359375,166.0
1756805816.4416664,-0.1488037109375,166.0
1756805816.446366,-0.1488037109375,160.0
1756805816.44668,-0.1488037109375,163.0
1756805816.4469647,-0.1488037109375,162.0
1756805816.447912,-0.1488037109375,165.0
1756805816.4481766,-0.1488037109375,189.0
1756805816.4485812,-0.1488037109375,212.0
1756805816.4487777,-0.1488037109375,193.0
1756805816.4489713,-0.1488037109375,124.0
1756805816.4491854,-0.1488037109375,62.0
1756805816.449403,-0.1488037109375,63.0
1756805816.4496384,-0.1488037109375,104.0
1756805816.449836,-0.1488037109375,110.0
1756805816.450031,-0.1488037109375,53.0
1756805816.4502268,-0.1488037109375,3.0
1756805816.4507868,-0.1488037109375,26.0
1756805816.451813,-0.1488037109375,98.0
1756805816.4538383,-0.1488037109375,132.0
1756805816.4557393,-0.1488037109375,92.0
1756805816.4578075,-0.1488037109375,45.0
1756805816.462209,-0.1488037109375,71.0
1756805816.4625347,-0.1488037109375,150.0
1756805816.4637547,-0.1488037109375,195.0
1756805816.4656134,-0.1488037109375,153.0
1756805816.4676058,-0.1488037109375,71.0
1756805816.4695604,-0.1488037109375,25.0
1756805816.471504,-0.1488037109375,28.0
1756805816.4736538,-0.1488037109375,27.0
1756805816.4754045,-0.1488037109375,-23.0
1756805816.4774194,-0.1488037109375,-99.0
1756805816.4793928,-0.1488037109375,-149.0
1756805816.4916239,-0.1488037109375,-143.0
1756805816.4919188,-0.1488037109375,-100.0
1756805816.4921725,-0.1488037109375,-58.0
1756805816.4934428,-0.1488037109375,-36.0
1756805816.4936473,-0.1488037109375,-26.0
1756805816.493844,-0.1488037109375,-9.0
1756805816.4944904,-0.1488037109375,26.0
1756805816.4950063,-0.1488037109375,72.0
1756805816.496969,-0.1488037109375,108.0
1756805816.4989495,-0.1488037109375,114.0
1756805816.5009205,-0.1488037109375,80.0
1756805816.5029502,-0.1488037109375,14.0
1756805816.5030727,-0.236572265625,14.0
1756805816.5048761,-0.236572265625,-59.0
1756805816.5094535,-0.236572265625,-110.0
1756805816.5097136,-0.236572265625,-121.0
1756805816.515383,-0.236572265625,-97.0
1756805816.515802,-0.236572265625,-72.0
1756805816.5166411,-0.236572265625,-77.0
1756805816.5168426,-0.236572265625,-112.0
1756805816.51899,-0.236572265625,-143.0
1756805816.526054,-0.236572265625,-137.0
1756805816.5269797,-0.236572265625,-91.0
1756805816.5276067,-0.236572265625,-42.0
1756805816.5278215,-0.236572265625,-28.0
1756805816.5285945,-0.236572265625,-58.0
1756805816.5305495,-0.236572265625,-104.0
1756805816.532536,-0.236572265625,-132.0
1756805816.5344703,-0.236572265625,-128.0
1756805816.5384178,-0.236572265625,-101.0
1756805816.5385993,-0.236572265625,-75.0
1756805816.5428007,-0.236572265625,-66.0
1756805816.5429108,-0.236572265625,-70.0
1756805816.5441144,-0.236572265625,-81.0
1756805816.5460756,-0.28662109375,-81.0
1756805816.5467403,-0.28662109375,-97.0
1756805816.548057,-0.28662109375,-122.0
1756805816.550117,-0.28662109375,-150.0
1756805816.5521896,-0.28662109375,-156.0
1756805816.553965,-0.28662109375,-126.0
1756805816.5558615,-0.28662109375,-80.0
1756805816.5598457,-0.28662109375,-66.0
1756805816.5600863,-0.28662109375,-105.0
1756805816.5649605,-0.28662109375,-164.0
1756805816.565251,-0.28662109375,-188.0
1756805816.5657756,-0.28662109375,-163.0
1756805816.567932,-0.28662109375,-121.0
1756805816.5696082,-0.28662109375,-105.0
1756805816.5715709,-0.28662109375,-121.0
1756805816.5735343,-0.28662109375,-148.0
1756805816.5755086,-0.28662109375,-166.0
1756805816.5775409,-0.28662109375,-171.0
1756805816.5794256,-0.28662109375,-170.0
1756805816.5813878,-0.28662109375,-163.0
1756805816.583381,-0.28662109375,-163.0
1756805816.58538,-0.28662109375,-189.0
1756805816.587469,-0.28662109375,-239.0
1756805816.5895765,-0.28662109375,-280.0
1756805816.5941875,-0.28662109375,-286.0
1756805816.5942762,-0.28662109375,-265.0
1756805816.595423,-0.28662109375,-259.0
1756805816.5971575,-0.28662109375,-284.0
1756805816.5982914,-0.259765625,-284.0
1756805816.5990722,-0.259765625,-316.0
1756805816.6011384,-0.259765625,-326.0
1756805816.6030734,-0.259765625,-319.0
1756805816.6050923,-0.259765625,-321.0
1756805816.6071458,-0.259765625,-331.0
1756805816.608952,-0.259765625,-321.0
1756805816.614158,-0.259765625,-277.0
1756805816.6143165,-0.259765625,-235.0
1756805816.6148865,-0.259765625,-243.0
1756805816.6168013,-0.259765625,-295.0
1756805816.6189432,-0.259765625,-323.0
1756805816.620932,-0.259765625,-285.0
1756805816.6229885,-0.259765625,-224.0
1756805816.6247015,-0.259765625,-229.0
1756805816.6287816,-0.259765625,-321.0
1756805816.628932,-0.259765625,-422.0
1756805816.6310086,-0.259765625,-444.0
1756805816.632765,-0.259765625,-383.0
1756805816.6353672,-0.259765625,-326.0
1756805816.6366527,-0.259765625,-342.0
1756805816.638604,-0.259765625,-407.0
1756805816.6404939,-0.1939697265625,-407.0
1756805816.640879,-0.1939697265625,-442.0
1756805816.6424353,-0.1939697265625,-409.0
1756805816.6451638,-0.1939697265625,-344.0
1756805816.6463506,-0.1939697265625,-311.0
1756805816.6484663,-0.1939697265625,-321.0
1756805816.652661,-0.1939697265625,-343.0
1756805816.652802,-0.1939697265625,-349.0
1756805816.6542306,-0.1939697265625,-356.0
1756805816.6561198,-0.1939697265625,-392.0
1756805816.6600997,-0.1939697265625,-454.0
1756805816.660278,-0.1939697265625,-509.0
1756805816.6637743,-0.1939697265625,-532.0
1756805816.665226,-0.1939697265625,-531.0
1756805816.6671972,-0.1939697265625,-532.0
1756805816.6678586,-0.1939697265625,-554.0
1756805816.6698437,-0.1939697265625,-583.0
1756805816.6718411,-0.1939697265625,-590.0
1756805816.6741025,-0.1939697265625,-565.0
1756805816.6757565,-0.1939697265625,-531.0
1756805816.6777666,-0.1939697265625,-518.0
1756805816.680018,-0.1939697265625,-536.0
1756805816.681811,-0.1939697265625,-564.0
1756805816.683802,-0.1939697265625,-581.0
1756805816.6857462,-0.1939697265625,-592.0
1756805816.6875966,-0.1939697265625,-611.0
1756805816.6896753,-0.1939697265625,-642.0
1756805816.6908252,-0.137939453125,-642.0
1756805816.691762,-0.137939453125,-674.0
1756805816.6936734,-0.137939453125,-697.0
1756805816.6955402,-0.137939453125,-714.0
1756805816.698512,-0.137939453125,-726.0
1756805816.6995928,-0.137939453125,-715.0
1756805816.701632,-0.137939453125,-670.0
1756805816.7041955,-0.137939453125,-618.0
1756805816.7148893,-0.137939453125,-607.0
1756805816.7151566,-0.137939453125,-650.0
1756805816.7157624,-0.137939453125,-705.0
1756805816.7160301,-0.137939453125,-720.0
1756805816.7161002,-0.137939453125,-695.0
1756805816.7161636,-0.137939453125,-685.0
1756805816.7178226,-0.137939453125,-726.0
1756805816.724104,-0.137939453125,-797.0
1756805816.724262,-0.137939453125,-836.0
1756805816.7244012,-0.137939453125,-811.0
1756805816.724915,-0.137939453125,-742.0
1756805816.7405255,-0.137939453125,-677.0
1756805816.7406034,-0.137939453125,-650.0
1756805816.7406495,-0.137939453125,-658.0
1756805816.7406938,-0.137939453125,-665.0
1756805816.7407374,-0.137939453125,-636.0
1756805816.7407975,-0.137939453125,-570.0
1756805816.7408416,-0.137939453125,-506.0
1756805816.7408845,-0.137939453125,-487.0
1756805816.7426183,-0.137939453125,-521.0
1756805816.7445285,-0.137939453125,-563.0
1756805816.7456303,-0.248046875,-563.0
1756805816.7464662,-0.248046875,-562.0
1756805816.7485387,-0.248046875,-512.0
1756805816.7503889,-0.248046875,-461.0
1756805816.7532275,-0.248046875,-459.0
1756805816.7543857,-0.248046875,-503.0
1756805816.7564287,-0.248046875,-550.0
1756805816.7588203,-0.248046875,-551.0
1756805816.763783,-0.248046875,-500.0
1756805816.7639678,-0.248046875,-422.0
1756805816.7658012,-0.248046875,-361.0
1756805816.7670755,-0.248046875,-348.0
1756805816.7681391,-0.248046875,-384.0
1756805816.770139,-0.248046875,-425.0
1756805816.772233,-0.248046875,-415.0
1756805816.7741215,-0.248046875,-352.0
1756805816.7764597,-0.248046875,-297.0
1756805816.7781556,-0.248046875,-320.0
1756805816.77998,-0.248046875,-414.0
1756805816.7818289,-0.248046875,-487.0
1756805816.7837977,-0.248046875,-461.0
1756805816.7857838,-0.248046875,-365.0
1756805816.7877226,-0.248046875,-301.0
1756805816.7897208,-0.248046875,-333.0
1756805816.7917106,-0.248046875,-402.0
1756805816.7937229,-0.248046875,-402.0
1756805816.799123,-0.468505859375,-402.0
1756805816.7992747,-0.468505859375,-306.0
1756805816.8047965,-0.468505859375,-197.0
1756805816.8050206,-0.468505859375,-167.0
1756805816.805173,-0.468505859375,-218.0
1756805816.8052385,-0.468505859375,-276.0
1756805816.8122873,-0.468505859375,-290.0
1756805816.81243,-0.468505859375,-281.0
1756805816.8124914,-0.468505859375,-297.0
1756805816.8125513,-0.468505859375,-337.0
1756805816.81331,-0.468505859375,-365.0
1756805816.8152394,-0.468505859375,-372.0
1756805816.8173661,-0.468505859375,-383.0
1756805816.8193183,-0.468505859375,-418.0
1756805816.8212516,-0.468505859375,-442.0
1756805816.8232782,-0.468505859375,-400.0
1756805816.825236,-0.468505859375,-291.0
1756805816.8271291,-0.468505859375,-186.0
1756805816.8291411,-0.468505859375,-146.0
1756805816.8311734,-0.468505859375,-165.0
1756805816.8342984,-0.468505859375,-186.0
1756805816.8367383,-0.468505859375,-173.0
1756805816.8369873,-0.468505859375,-141.0
1756805816.839104,-0.468505859375,-128.0
1756805816.839212,-0.6513671875,-128.0
1756805816.8409543,-0.6513671875,-145.0
1756805816.843101,-0.6513671875,-177.0
1756805816.844825,-0.6513671875,-209.0
1756805816.8469877,-0.6513671875,-239.0
1756805816.8508444,-0.6513671875,-269.0
1756805816.853925,-0.6513671875,-298.0
1756805816.8562105,-0.6513671875,-323.0
1756805816.8562722,-0.6513671875,-346.0
1756805816.8574193,-0.6513671875,-375.0
1756805816.8588555,-0.6513671875,-420.0
1756805816.8615074,-0.6513671875,-498.0
1756805816.862586,-0.6513671875,-631.0
1756805816.8643923,-0.6513671875,-825.0
1756805816.8664029,-0.6513671875,-1041.0
1756805816.8686044,-0.6513671875,-1220.0
1756805816.8703537,-0.6513671875,-1342.0
1756805816.886396,-0.6513671875,-1447.0
1756805816.886702,-0.6513671875,-1583.0
1756805816.8867865,-0.6513671875,-1731.0
1756805816.8868475,-0.6513671875,-1812.0
1756805816.886906,-0.6513671875,-1766.0
1756805816.886963,-0.6513671875,-1608.0
1756805816.8870192,-0.6513671875,-1407.0
1756805816.8870769,-0.6513671875,-1214.0
1756805816.888439,-0.6513671875,-1033.0
1756805816.8901072,-0.6513671875,-849.0
1756805816.8920653,-0.6513671875,-663.0
1756805816.8937435,-0.70703125,-663.0
1756805816.8940413,-0.70703125,-490.0
1756805816.8959036,-0.70703125,-340.0
1756805816.8979418,-0.70703125,-223.0
1756805816.899874,-0.70703125,-150.0
1756805816.901748,-0.70703125,-127.0
1756805816.9048147,-0.70703125,-130.0
1756805816.912158,-0.70703125,-119.0
1756805816.9122467,-0.70703125,-82.0
1756805816.9123437,-0.70703125,-49.0
1756805816.9123886,-0.70703125,-54.0
1756805816.9136307,-0.70703125,-83.0
1756805816.916219,-0.70703125,-86.0
1756805816.9175053,-0.70703125,-46.0
1756805816.9195158,-0.70703125,-5.0
1756805816.9214444,-0.70703125,-23.0
1756805816.92343,-0.70703125,-95.0
1756805816.9253979,-0.70703125,-158.0
1756805816.927514,-0.70703125,-159.0
1756805816.929539,-0.70703125,-116.0
1756805816.9315636,-0.70703125,-96.0
1756805816.9333837,-0.70703125,-130.0
1756805816.9353194,-0.70703125,-177.0
1756805816.9376192,-0.70703125,-171.0
1756805816.9391947,-0.70703125,-99.0
1756805816.942014,-0.72998046875,-99.0
1756805816.9425268,-0.72998046875,-12.0
1756805816.9435546,-0.72998046875,20.0
1756805816.946155,-0.72998046875,-23.0
1756805816.9471042,-0.72998046875,-95.0
1756805816.9490044,-0.72998046875,-144.0
1756805816.9509628,-0.72998046875,-152.0
1756805816.9529986,-0.72998046875,-140.0
1756805816.9549174,-0.72998046875,-133.0
1756805816.9568946,-0.72998046875,-136.0
1756805816.9615204,-0.72998046875,-132.0
1756805816.9616778,-0.72998046875,-108.0
1756805816.9627972,-0.72998046875,-74.0
1756805816.9647505,-0.72998046875,-45.0
1756805816.9666128,-0.72998046875,-22.0
1756805816.9774702,-0.72998046875,3.0
1756805816.9783092,-0.72998046875,30.0
1756805816.9785538,-0.72998046875,47.0
1756805816.9788027,-0.72998046875,39.0
1756805816.9789128,-0.72998046875,11.0
1756805816.9789617,-0.72998046875,-24.0
1756805816.980354,-0.72998046875,-55.0
1756805816.9828923,-0.72998046875,-84.0
1756805816.9858077,-0.72998046875,-110.0
1756805816.9862876,-0.72998046875,-120.0
1756805816.9882548,-0.72998046875,-109.0
1756805816.9902837,-0.72998046875,-95.0
1756805816.9922109,-0.72998046875,-108.0
1756805816.9935346,-0.7275390625,-108.0
1756805816.994685,-0.7275390625,-156.0
1756805816.9963927,-0.7275390625,-200.0
1756805816.9980412,-0.7275390625,-195.0
1756805817.0003753,-0.7275390625,-139.0
1756805817.004542,-0.7275390625,-97.0
1756805817.0050669,-0.7275390625,-123.0
1756805817.0061493,-0.7275390625,-208.0
1756805817.0087433,-0.7275390625,-278.0
1756805817.0099847,-0.7275390625,-270.0
1756805817.0120163,-0.7275390625,-201.0
1756805817.0139368,-0.7275390625,-143.0
1756805817.015932,-0.7275390625,-146.0
1756805817.0180247,-0.7275390625,-181.0
1756805817.0212333,-0.7275390625,-192.0
1756805817.0218961,-0.7275390625,-164.0
1756805817.0237513,-0.7275390625,-141.0
1756805817.0258653,-0.7275390625,-169.0
1756805817.027652,-0.7275390625,-229.0
1756805817.0297341,-0.7275390625,-249.0
1756805817.031678,-0.7275390625,-199.0
1756805817.033644,-0.7275390625,-133.0
1756805817.0355527,-0.7275390625,-124.0
1756805817.0375762,-0.7275390625,-179.0
1756805817.0399396,-0.7275390625,-232.0
1756805817.0414577,-0.7275390625,-219.0
1756805817.0435214,-0.7275390625,-160.0
1756805817.0456517,-0.71142578125,-160.0
1756805817.046616,-0.71142578125,-132.0
1756805817.0475943,-0.71142578125,-179.0
1756805817.0493548,-0.71142578125,-260.0
1756805817.0513325,-0.71142578125,-301.0
1756805817.0532944,-0.71142578125,-283.0
1756805817.0552404,-0.71142578125,-262.0
1756805817.0574775,-0.71142578125,-296.0
1756805817.0590968,-0.71142578125,-377.0
1756805817.0725207,-0.71142578125,-432.0
1756805817.0728772,-0.71142578125,-400.0
1756805817.0730786,-0.71142578125,-311.0
1756805817.0732806,-0.71142578125,-254.0
1756805817.073733,-0.71142578125,-295.0
1756805817.0755825,-0.71142578125,-391.0
1756805817.0758355,-0.71142578125,-429.0
1756805817.0760617,-0.71142578125,-351.0
1756805817.0768442,-0.71142578125,-236.0
1756805817.0863907,-0.71142578125,-217.0
1756805817.0866847,-0.71142578125,-326.0
1756805817.086884,-0.71142578125,-455.0
1756805817.0870814,-0.71142578125,-480.0
1756805817.0872772,-0.71142578125,-408.0
1756805817.0906296,-0.71142578125,-364.0
1756805817.0909312,-0.71142578125,-436.0
1756805817.0925598,-0.71142578125,-564.0
1756805817.0953896,-0.71142578125,-626.0
1756805817.095611,-0.55322265625,-626.0
1756805817.0965118,-0.55322265625,-600.0
1756805817.0998201,-0.55322265625,-579.0
1756805817.1005857,-0.55322265625,-630.0
1756805817.103032,-0.55322265625,-701.0
1756805817.1046753,-0.55322265625,-692.0
1756805817.1064801,-0.55322265625,-598.0
1756805817.1091905,-0.55322265625,-525.0
1756805817.1102402,-0.55322265625,-543.0
1756805817.112553,-0.55322265625,-606.0
1756805817.116691,-0.55322265625,-618.0
1756805817.1169298,-0.55322265625,-564.0
1756805817.1181743,-0.55322265625,-522.0
1756805817.120383,-0.55322265625,-559.0
1756805817.1221325,-0.55322265625,-651.0
1756805817.1243212,-0.55322265625,-718.0
1756805817.1266685,-0.55322265625,-728.0
1756805817.1279788,-0.55322265625,-719.0
1756805817.1306078,-0.55322265625,-741.0
1756805817.1375227,-0.55322265625,-790.0
1756805817.1378596,-0.55322265625,-822.0
1756805817.1380773,-0.55322265625,-807.0
1756805817.1382766,-0.55322265625,-761.0
1756805817.1397486,-0.55322265625,-727.0
1756805817.1418133,-0.55322265625,-729.0
1756805817.1429698,-0.1781005859375,-729.0
1756805817.1450098,-0.1781005859375,-753.0
1756805817.1456492,-0.1781005859375,-777.0
1756805817.1476455,-0.1781005859375,-790.0
1756805817.1495712,-0.1781005859375,-801.0
1756805817.1516476,-0.1781005859375,-824.0
1756805817.1535158,-0.1781005859375,-860.0
1756805817.1554813,-0.1781005859375,-895.0
1756805817.1574736,-0.1781005859375,-930.0
1756805817.1594408,-0.1781005859375,-968.0
1756805817.161347,-0.1781005859375,-1000.0
1756805817.1636794,-0.1781005859375,-998.0
1756805817.166475,-0.1781005859375,-949.0
1756805817.1698675,-0.1781005859375,-883.0
1756805817.1700823,-0.1781005859375,-845.0
1756805817.173768,-0.1781005859375,-838.0
1756805817.1754816,-0.1781005859375,-826.0
1756805817.1757197,-0.1781005859375,-780.0
1756805817.177457,-0.1781005859375,-717.0
1756805817.1793203,-0.1781005859375,-686.0
1756805817.1825511,-0.1781005859375,-691.0
1756805817.1831937,-0.1781005859375,-691.0
1756805817.1849573,-0.1781005859375,-655.0
1756805817.1875265,-0.1781005859375,-606.0
1756805817.1889045,-0.1781005859375,-581.0
1756805817.195588,-0.1781005859375,-577.0
1756805817.1964834,-0.1781005859375,-553.0
1756805817.1967673,-0.1781005859375,-489.0
1756805817.1969764,-0.1781005859375,-419.0
1756805817.1976528,0.400390625,-419.0
1756805817.1993175,0.400390625,-386.0
1756805817.200698,0.400390625,-384.0
1756805817.205283,0.400390625,-368.0
1756805817.2055123,0.400390625,-317.0
1756805817.207298,0.400390625,-263.0
1756805817.208557,0.400390625,-246.0
1756805817.2139735,0.400390625,-257.0
1756805817.214273,0.400390625,-254.0
1756805817.2144804,0.400390625,-210.0
1756805817.217331,0.400390625,-140.0
1756805817.2186363,0.400390625,-82.0
1756805817.221194,0.400390625,-66.0
1756805817.2225254,0.400390625,-79.0
1756805817.2244987,0.400390625,-84.0
1756805817.2264316,0.400390625,-54.0
1756805817.2284524,0.400390625,7.0
1756805817.230345,0.400390625,69.0
1756805817.2324104,0.400390625,94.0
1756805817.234245,0.400390625,76.0
1756805817.23841,0.400390625,44.0
1756805817.238774,0.400390625,40.0
1756805817.2421823,0.400390625,79.0
1756805817.2424123,0.400390625,135.0
1756805817.246165,0.400390625,173.0
1756805817.2467637,0.400390625,185.0
1756805817.2489533,0.400390625,190.0
1756805817.2499962,0.400390625,200.0
1756805817.2518332,0.400390625,209.0
1756805817.2538996,0.400390625,205.0
1756805817.2558272,0.400390625,191.0
1756805817.2604625,0.400390625,180.0
1756805817.2621899,0.90234375,180.0
1756805817.2646143,0.90234375,175.0
1756805817.265206,0.90234375,165.0
1756805817.2654665,0.90234375,139.0
1756805817.2656758,0.90234375,117.0
1756805817.2674978,0.90234375,124.0
1756805817.2695873,0.90234375,168.0
1756805817.279753,0.90234375,226.0
1756805817.2806299,0.90234375,266.0
1756805817.2812645,0.90234375,279.0
1756805817.2825084,0.90234375,284.0
1756805817.2825854,0.90234375,304.0
1756805817.2826319,0.90234375,330.0
1756805817.2830572,0.90234375,328.0
1756805817.2850375,0.90234375,279.0
1756805817.2875237,0.90234375,205.0
1756805817.2890875,0.90234375,155.0
1756805817.291226,0.90234375,157.0
1756805817.2930648,0.90234375,193.0
1756805817.2948468,0.90234375,218.0
1756805817.296913,0.90234375,212.0
1756805817.2988572,0.90234375,198.0
1756805817.300888,0.90234375,199.0
1756805817.3027687,0.90234375,220.0
1756805817.304583,1.064453125,220.0
1756805817.3046818,1.064453125,238.0
1756805817.3066485,1.064453125,233.0
1756805817.3086293,1.064453125,210.0
1756805817.3117976,1.064453125,179.0
1756805817.3136978,1.064453125,154.0
1756805817.3145456,1.064453125,139.0
1756805817.3165028,1.064453125,135.0
1756805817.3187819,1.064453125,128.0
1756805817.3204434,1.064453125,105.0
1756805817.3224356,1.064453125,69.0
1756805817.3247197,1.064453125,45.0
1756805817.3266094,1.064453125,48.0
1756805817.3285484,1.064453125,63.0
1756805817.3305657,1.064453125,52.0
1756805817.3327897,1.064453125,7.0
1756805817.3342943,1.064453125,-39.0
1756805817.3364077,1.064453125,-35.0
1756805817.338395,1.064453125,23.0
1756805817.3406482,1.064453125,87.0
1756805817.34223,1.064453125,110.0
1756805817.3442767,1.064453125,95.0
1756805817.3460093,1.064453125,87.0
1756805817.3479795,1.064453125,122.0
1756805817.3487816,0.98974609375,122.0
1756805817.3499615,0.98974609375,182.0
1756805817.3518457,0.98974609375,207.0
1756805817.3544364,0.98974609375,156.0
1756805817.3558662,0.98974609375,50.0
1756805817.3578887,0.98974609375,-39.0
1756805817.3597043,0.98974609375,-59.0
1756805817.361676,0.98974609375,-31.0
1756805817.3637013,0.98974609375,-22.0
1756805817.3655884,0.98974609375,-56.0
1756805817.3676984,0.98974609375,-80.0
1756805817.3695748,0.98974609375,-30.0
1756805817.371555,0.98974609375,69.0
1756805817.3734958,0.98974609375,133.0
1756805817.3754654,0.98974609375,112.0
1756805817.384988,0.98974609375,55.0
1756805817.3864553,0.98974609375,44.0
1756805817.3866425,0.98974609375,79.0
1756805817.386801,0.98974609375,77.0
1756805817.386958,0.98974609375,-3.0
1756805817.3876219,0.98974609375,-93.0
1756805817.3894935,0.98974609375,-103.0
1756805817.39203,0.98974609375,-35.0
1756805817.3931723,0.98974609375,17.0
1756805817.3951433,0.98974609375,-5.0
1756805817.3980052,0.98974609375,-48.0
1756805817.3991888,0.98974609375,-29.0
1756805817.3993204,0.6943359375,-29.0
1756805817.4013057,0.6943359375,52.0
1756805817.4032242,0.6943359375,112.0
1756805817.4051223,0.6943359375,88.0
1756805817.406966,0.6943359375,8.0
1756805817.40912,0.6943359375,-54.0
1756805817.4139667,0.6943359375,-77.0
1756805817.4143436,0.6943359375,-95.0
1756805817.4270797,0.6943359375,-133.0
1756805817.4273202,0.6943359375,-172.0
1756805817.427519,0.6943359375,-176.0
1756805817.427715,0.6943359375,-150.0
1756805817.4279106,0.6943359375,-125.0
1756805817.428107,0.6943359375,-117.0
1756805817.4283028,0.6943359375,-113.0
1756805817.4289885,0.6943359375,-92.0
1756805817.456199,0.6943359375,-51.0
1756805817.4565992,0.6943359375,-10.0
1756805817.458072,0.432861328125,-10.0
1756805817.4668112,0.432861328125,9.0
1756805817.4671516,0.432861328125,1.0
1756805817.4675038,0.432861328125,-29.0
1756805817.4710953,0.432861328125,-68.0
1756805817.4713545,0.432861328125,-96.0
1756805817.471552,0.432861328125,-96.0
1756805817.4717505,0.432861328125,-78.0
1756805817.4719472,0.432861328125,-65.0
1756805817.4721434,0.432861328125,-69.0
1756805817.472341,0.432861328125,-80.0
1756805817.472537,0.432861328125,-78.0
1756805817.472759,0.432861328125,-42.0
1756805817.4757009,0.432861328125,22.0
1756805817.4830606,0.432861328125,77.0
1756805817.4834101,0.432861328125,85.0
1756805817.484526,0.432861328125,31.0
1756805817.484732,0.432861328125,-47.0
1756805817.4849293,0.432861328125,-88.0
1756805817.4851277,0.432861328125,-71.0
1756805817.4853268,0.432861328125,-39.0
1756805817.4856975,0.432861328125,-53.0
1756805817.4860086,0.432861328125,-112.0
1756805817.4862998,0.432861328125,-153.0
1756805817.4887455,0.432861328125,-114.0
1756805817.4891093,0.432861328125,-14.0
1756805817.4893446,0.432861328125,62.0
1756805817.4895537,0.432861328125,62.0
1756805817.4897504,0.432861328125,16.0
1756805817.490043,0.432861328125,-11.0
1756805817.4918497,0.432861328125,9.0
1756805817.4935753,0.432861328125,38.0
1756805817.4955366,0.432861328125,32.0
1756805817.4964375,0.23388671875,32.0
1756805817.4975204,0.23388671875,-18.0
1756805817.5008528,0.23388671875,-82.0
1756805817.5094054,0.23388671875,-133.0
1756805817.5273376,0.23388671875,-164.0
1756805817.5277014,0.23388671875,-171.0
1756805817.5279028,0.23388671875,-141.0
1756805817.5280979,0.23388671875,-87.0
1756805817.5282924,0.23388671875,-42.0
1756805817.528539,0.23388671875,-34.0
1756805817.5287442,0.23388671875,-52.0
1756805817.5289414,0.23388671875,-54.0
1756805817.5291378,0.23388671875,-21.0
1756805817.5293565,0.23388671875,28.0
1756805817.5295537,0.23388671875,54.0
1756805817.529748,0.23388671875,46.0
1756805817.5299425,0.23388671875,24.0
1756805817.530137,0.23388671875,3.0
1756805817.53092,0.23388671875,-25.0
1756805817.532918,0.23388671875,-54.0
1756805817.5395403,0.23388671875,-57.0
1756805817.5398166,0.23388671875,-15.0
1756805817.5400307,0.23388671875,41.0
1756805817.5426285,0.23388671875,50.0
1756805817.542839,0.23388671875,-4.0
1756805817.5499191,0.23388671875,-58.0
1756805817.5503883,0.23388671875,-37.0
1756805817.5505898,0.23388671875,48.0
1756805817.5507858,0.23388671875,98.0
1756805817.5525677,0.23388671875,39.0
1756805817.5546167,0.23388671875,-89.0
1756805817.5566137,0.23388671875,-161.0
1756805817.558474,0.23388671875,-112.0
1756805817.560495,0.23388671875,-8.0
1756805817.5636275,0.23388671875,37.0
1756805817.5662951,0.23388671875,-14.0
1756805817.5666518,0.23388671875,-82.0
1756805817.5692167,0.04010009765625,-82.0
1756805817.5780034,0.04010009765625,-79.0
1756805817.578521,0.04010009765625,3.0
1756805817.5789702,0.04010009765625,88.0
1756805817.5791705,0.04010009765625,102.0
1756805817.57983,0.04010009765625,36.0
1756805817.5800343,0.04010009765625,-52.0
1756805817.5802314,0.04010009765625,-100.0
1756805817.5828362,0.04010009765625,-88.0
1756805817.5929682,0.04010009765625,-47.0
1756805817.5932195,0.04010009765625,-23.0
1756805817.5934637,0.04010009765625,-39.0
1756805817.5937278,0.04010009765625,-79.0
1756805817.5940626,0.04010009765625,-107.0
1756805817.6015558,-0.1273193359375,-107.0
1756805817.6072493,-0.1273193359375,-97.0
1756805817.6074913,-0.1273193359375,-57.0
1756805817.6076913,-0.1273193359375,-9.0
1756805817.6078877,-0.1273193359375,26.0
1756805817.608084,-0.1273193359375,32.0
1756805817.6082802,-0.1273193359375,8.0
1756805817.6084769,-0.1273193359375,-37.0
1756805817.6086755,-0.1273193359375,-82.0
1756805817.617642,-0.1273193359375,-101.0
1756805817.619364,-0.1273193359375,-94.0
1756805817.6197414,-0.1273193359375,-91.0
1756805817.620082,-0.1273193359375,-127.0
1756805817.6204214,-0.1273193359375,-204.0
1756805817.6207614,-0.1273193359375,-278.0
1756805817.6258783,-0.1273193359375,-300.0
1756805817.6273565,-0.1273193359375,-260.0
1756805817.62779,-0.1273193359375,-200.0
1756805817.6280026,-0.1273193359375,-166.0
1756805817.6292303,-0.1273193359375,-165.0
1756805817.6311655,-0.1273193359375,-164.0
1756805817.6353598,-0.1273193359375,-137.0
1756805817.6362846,-0.1273193359375,-107.0
1756805817.637188,-0.1273193359375,-111.0
1756805817.639442,-0.1273193359375,-151.0
1756805817.6410055,-0.1273193359375,-177.0
1756805817.6579359,-0.20458984375,-177.0
1756805817.6665308,-0.20458984375,-159.0
1756805817.6675954,-0.20458984375,-139.0
1756805817.6681597,-0.20458984375,-184.0
1756805817.6685927,-0.20458984375,-299.0
1756805817.6687942,-0.20458984375,-401.0
1756805817.6689918,-0.20458984375,-405.0
1756805817.6693368,-0.20458984375,-324.0
1756805817.6696615,-0.20458984375,-264.0
1756805817.669953,-0.20458984375,-304.0
1756805817.670154,-0.20458984375,-407.0
1756805817.670353,-0.20458984375,-462.0
1756805817.6834517,-0.20458984375,-415.0
1756805817.6994567,-0.28515625,-415.0
1756805817.7052147,-0.28515625,-318.0
1756805817.7058244,-0.28515625,-259.0
1756805817.7060676,-0.28515625,-278.0
1756805817.706347,-0.28515625,-332.0
1756805817.7065449,-0.28515625,-358.0
1756805817.7067416,-0.28515625,-337.0
1756805817.706938,-0.28515625,-295.0
1756805817.707133,-0.28515625,-266.0
1756805817.7073267,-0.28515625,-259.0
1756805817.7075205,-0.28515625,-259.0
1756805817.707717,-0.28515625,-251.0
1756805817.707912,-0.28515625,-232.0
1756805817.7081068,-0.28515625,-211.0
1756805817.7083025,-0.28515625,-200.0
1756805817.7084966,-0.28515625,-198.0
1756805817.7118218,-0.28515625,-193.0
1756805817.7121968,-0.28515625,-183.0
1756805817.7124095,-0.28515625,-177.0
1756805817.7129276,-0.28515625,-193.0
1756805817.7132626,-0.28515625,-224.0
1756805817.7134745,-0.28515625,-237.0
1756805817.7138994,-0.28515625,-213.0
1756805817.714245,-0.28515625,-176.0
1756805817.7165427,-0.28515625,-175.0
1756805817.7168152,-0.28515625,-219.0
1756805817.7171583,-0.28515625,-248.0
1756805817.7333014,-0.28515625,-200.0
1756805817.7396486,-0.28515625,-95.0
1756805817.7453592,-0.25341796875,-95.0
1756805817.7655206,-0.25341796875,-29.0
1756805817.7657883,-0.25341796875,-71.0
1756805817.7675095,-0.25341796875,-167.0
1756805817.7679987,-0.25341796875,-198.0
1756805817.7688906,-0.25341796875,-113.0
1756805817.7690911,-0.25341796875,-3.0
1756805817.7693093,-0.25341796875,0.0
1756805817.769504,-0.25341796875,-111.0
1756805817.7698805,-0.25341796875,-219.0
1756805817.770082,-0.25341796875,-215.0
1756805817.770277,-0.25341796875,-127.0
1756805817.7704742,-0.25341796875,-78.0
1756805817.7706711,-0.25341796875,-136.0
1756805817.7708657,-0.25341796875,-244.0
1756805817.7710621,-0.25341796875,-288.0
1756805817.7712564,-0.25341796875,-240.0
1756805817.771452,-0.25341796875,-176.0
1756805817.771646,-0.25341796875,-181.0
1756805817.77184,-0.25341796875,-244.0
1756805817.7720354,-0.25341796875,-284.0
1756805817.772379,-0.25341796875,-251.0
1756805817.7726393,-0.25341796875,-184.0
1756805817.7765558,-0.25341796875,-152.0
1756805817.7771099,-0.25341796875,-171.0
1756805817.7776065,-0.25341796875,-190.0
1756805817.7778084,-0.25341796875,-163.0
1756805817.7780046,-0.25341796875,-116.0
1756805817.7782028,-0.25341796875,-105.0
1756805817.7784054,-0.25341796875,-146.0
1756805817.778666,-0.25341796875,-199.0
1756805817.78071,-0.25341796875,-229.0
1756805817.7824287,-0.25341796875,-246.0
1756805817.7852232,-0.25341796875,-282.0
1756805817.7979739,-0.06756591796875,-282.0
1756805817.824126,-0.06756591796875,-335.0
1756805817.831177,-0.06756591796875,-366.0
1756805817.84664,0.406494140625,-366.0
1756805817.8522172,0.406494140625,-353.0
1756805817.864407,0.406494140625,-316.0
1756805817.8646655,0.406494140625,-281.0
1756805817.8648875,0.406494140625,-252.0
1756805817.8651083,0.406494140625,-224.0
1756805817.865842,0.406494140625,-214.0
1756805817.8698428,0.406494140625,-247.0
1756805817.8703477,0.406494140625,-312.0
1756805817.8705509,0.406494140625,-375.0
1756805817.8707657,0.406494140625,-426.0
1756805817.870962,0.406494140625,-494.0
1756805817.871158,0.406494140625,-608.0
1756805817.8713515,0.406494140625,-751.0
1756805817.871547,0.406494140625,-881.0
1756805817.8718204,0.406494140625,-995.0
1756805817.8720188,0.406494140625,-1131.0
1756805817.8724823,0.406494140625,-1302.0
1756805817.8734148,0.406494140625,-1461.0
1756805817.876744,0.406494140625,-1556.0
1756805817.8793945,0.406494140625,-1602.0
1756805817.8796167,0.406494140625,-1662.0
1756805817.8798134,0.406494140625,-1751.0
1756805817.880009,0.406494140625,-1796.0
1756805817.8802037,0.406494140625,-1715.0
1756805817.8804386,0.406494140625,-1510.0
1756805817.8806381,0.406494140625,-1267.0
1756805817.880834,0.406494140625,-1068.0
1756805817.8813248,0.406494140625,-919.0
1756805817.8815255,0.406494140625,-770.0
1756805817.8817208,0.406494140625,-576.0
1756805817.881917,0.406494140625,-354.0
1756805817.8821137,0.406494140625,-166.0
1756805817.882309,0.406494140625,-73.0
1756805817.8825035,0.406494140625,-88.0
1756805817.8827295,0.406494140625,-146.0
1756805817.882927,0.406494140625,-163.0
1756805817.8831224,0.406494140625,-117.0
1756805817.883319,0.406494140625,-69.0
1756805817.8835146,0.406494140625,-101.0
1756805817.883784,0.406494140625,-210.0
1756805817.8839815,0.406494140625,-299.0
1756805817.8841774,0.406494140625,-293.0
1756805817.8849628,0.406494140625,-222.0
1756805817.8851652,0.406494140625,-189.0
1756805817.885361,0.406494140625,-239.0
1756805817.8855565,0.406494140625,-309.0
1756805817.8857503,0.406494140625,-317.0
1756805817.88597,0.406494140625,-266.0
1756805817.8861663,0.406494140625,-225.0
1756805817.8865948,0.406494140625,-234.0
1756805817.8885164,0.406494140625,-258.0
1756805817.8906236,0.406494140625,-251.0
1756805817.8924937,0.406494140625,-230.0
1756805817.894453,0.406494140625,-256.0
1756805817.896608,0.406494140625,-330.0
1756805817.9179273,0.73046875,-330.0
1756805817.9214067,0.73046875,-376.0
1756805817.936146,0.73046875,-331.0
1756805817.9363704,0.73046875,-225.0
1756805817.936722,0.73046875,-167.0
1756805817.9369428,0.73046875,-213.0
1756805817.9375145,0.73046875,-305.0
1756805817.9377167,0.73046875,-342.0
1756805817.937914,0.73046875,-296.0
1756805817.9381096,0.73046875,-237.0
1756805817.938306,0.73046875,-246.0
1756805817.9385026,0.73046875,-317.0
1756805817.9386983,0.73046875,-386.0
1756805817.9388952,0.73046875,-400.0
1756805817.9390905,0.73046875,-369.0
1756805817.9393098,0.73046875,-337.0
1756805817.9395099,0.73046875,-322.0
1756805817.9473758,0.73388671875,-322.0
1756805817.9628203,0.73388671875,-308.0
1756805817.9663603,0.73388671875,-285.0
1756805817.9666295,0.73388671875,-267.0
1756805817.9668322,0.73388671875,-272.0
1756805817.9670873,0.73388671875,-307.0
1756805817.9672878,0.73388671875,-353.0
1756805817.967484,0.73388671875,-393.0
1756805817.9676793,0.73388671875,-413.0
1756805817.967874,0.73388671875,-413.0
1756805817.9680703,0.73388671875,-404.0
1756805817.9682648,0.73388671875,-403.0
1756805817.9684615,0.73388671875,-421.0
1756805817.9686577,0.73388671875,-438.0
1756805817.9688532,0.73388671875,-425.0
1756805817.9701536,0.73388671875,-380.0
1756805817.9703524,0.73388671875,-337.0
1756805817.9705477,0.73388671875,-336.0
1756805817.9731684,0.73388671875,-384.0
1756805817.9735615,0.73388671875,-447.0
1756805817.9737642,0.73388671875,-497.0
1756805817.9739609,0.73388671875,-532.0
1756805817.974157,0.73388671875,-553.0
1756805817.9748619,0.73388671875,-544.0
1756805817.9750621,0.73388671875,-500.0
1756805817.9925618,0.73388671875,-450.0
1756805817.9930587,0.73388671875,-443.0
1756805817.9932675,0.73388671875,-481.0
1756805817.9935102,0.73388671875,-506.0
1756805817.9942136,0.505859375,-506.0
1756805817.9983044,0.505859375,-470.0
1756805817.9985414,0.505859375,-406.0
1756805817.9987397,0.505859375,-396.0
1756805817.9989367,0.505859375,-475.0
1756805818.0007637,0.505859375,-579.0
1756805818.0012157,0.505859375,-618.0
1756805818.0014288,0.505859375,-574.0
1756805818.001626,0.505859375,-506.0
1756805818.0018308,0.505859375,-472.0
1756805818.002786,0.505859375,-477.0
1756805818.0045457,0.505859375,-485.0
1756805818.0065153,0.505859375,-476.0
1756805818.0084805,0.505859375,-464.0
1756805818.0211687,0.505859375,-458.0
1756805818.022267,0.505859375,-449.0
1756805818.0225682,0.505859375,-429.0
1756805818.0228252,0.505859375,-415.0
1756805818.023325,0.505859375,-433.0
1756805818.0238411,0.505859375,-481.0
1756805818.0243266,0.505859375,-520.0
1756805818.0245264,0.505859375,-516.0
1756805818.0285163,0.505859375,-479.0
1756805818.028776,0.505859375,-451.0
1756805818.0302567,0.505859375,-465.0
1756805818.0325322,0.505859375,-509.0
1756805818.03415,0.505859375,-547.0
1756805818.0363545,0.505859375,-568.0
1756805818.0382004,0.505859375,-601.0
1756805818.0403752,0.505859375,-658.0
1756805818.0505016,0.505859375,-718.0
1756805818.0507529,0.505859375,-745.0
1756805818.051143,0.505859375,-747.0
1756805818.0523686,0.29736328125,-747.0
1756805818.054466,0.29736328125,-770.0
1756805818.0546956,0.29736328125,-836.0
1756805818.0550795,0.29736328125,-898.0
1756805818.0552793,0.29736328125,-882.0
1756805818.0574255,0.29736328125,-789.0
1756805818.0576441,0.29736328125,-700.0
1756805818.059685,0.29736328125,-693.0
1756805818.0616329,0.29736328125,-743.0
1756805818.0637598,0.29736328125,-769.0
1756805818.065552,0.29736328125,-730.0
1756805818.0694273,0.29736328125,-674.0
1756805818.0696719,0.29736328125,-661.0
1756805818.0714345,0.29736328125,-685.0
1756805818.0735986,0.29736328125,-690.0
1756805818.077348,0.29736328125,-658.0
1756805818.0775743,0.29736328125,-649.0
1756805818.0792947,0.29736328125,-717.0
1756805818.0812805,0.29736328125,-829.0
1756805818.0852776,0.29736328125,-888.0
1756805818.0855014,0.29736328125,-850.0
1756805818.090099,0.29736328125,-779.0
1756805818.0915425,0.10546875,-779.0
1756805818.093388,0.10546875,-786.0
1756805818.0941377,0.10546875,-905.0
1756805818.096425,0.10546875,-1055.0
1756805818.0966423,0.10546875,-1115.0
1756805818.0982654,0.10546875,-1044.0
1756805818.099098,0.10546875,-920.0
1756805818.1009417,0.10546875,-855.0
1756805818.103128,0.10546875,-894.0
1756805818.1049387,0.10546875,-978.0
1756805818.1067834,0.10546875,-1017.0
1756805818.1088123,0.10546875,-977.0
1756805818.1143668,0.10546875,-903.0
1756805818.1153448,0.10546875,-866.0
1756805818.1155531,0.10546875,-882.0
1756805818.1187634,0.10546875,-918.0
1756805818.119294,0.10546875,-937.0
1756805818.1213143,0.10546875,-937.0
1756805818.1224837,0.10546875,-940.0
1756805818.1261165,0.10546875,-936.0
1756805818.126515,0.10546875,-891.0
1756805818.1283944,0.10546875,-805.0
1756805818.1303816,0.10546875,-726.0
1756805818.1325204,0.10546875,-706.0
1756805818.1343403,0.10546875,-734.0
1756805818.137433,0.10546875,-743.0
1756805818.1382287,0.10546875,-688.0
1756805818.1406367,0.10546875,-600.0
1756805818.142186,0.10546875,-536.0
1756805818.1453638,0.10546875,-516.0
1756805818.146132,0.10546875,-514.0
1756805818.1469,0.043304443359375,-514.0
1756805818.148076,0.043304443359375,-500.0
1756805818.1501627,0.043304443359375,-485.0
1756805818.1522171,0.043304443359375,-487.0
1756805818.1539817,0.043304443359375,-502.0
1756805818.1560037,0.043304443359375,-506.0
1756805818.1581097,0.043304443359375,-490.0
1756805818.160008,0.043304443359375,-470.0
1756805818.1624875,0.043304443359375,-459.0
1756805818.1639097,0.043304443359375,-451.0
1756805818.1673584,0.043304443359375,-424.0
1756805818.1677234,0.043304443359375,-373.0
1756805818.174356,0.043304443359375,-300.0
1756805818.1746058,0.043304443359375,-207.0
1756805818.1748037,0.043304443359375,-108.0
1756805818.175613,0.043304443359375,-32.0
1756805818.1787863,0.043304443359375,3.0
1756805818.1796587,0.043304443359375,10.0
1756805818.1815977,0.043304443359375,26.0
1756805818.1850615,0.043304443359375,60.0
1756805818.1855128,0.043304443359375,76.0
1756805818.1874604,0.043304443359375,38.0
1756805818.189836,0.043304443359375,-35.0
1756805818.1912556,0.043304443359375,-80.0
1756805818.1936061,0.043304443359375,-57.0
1756805818.1952362,0.043304443359375,-6.0
1756805818.19727,0.043304443359375,6.0
1756805818.2093048,0.0022029876708984375,6.0
1756805818.211086,0.0022029876708984375,-33.0
1756805818.2113428,0.0022029876708984375,-65.0
1756805818.2115402,0.0022029876708984375,-26.0
1756805818.211735,0.0022029876708984375,71.0
1756805818.212027,0.0022029876708984375,143.0
1756805818.2139702,0.0022029876708984375,134.0
1756805818.2141757,0.0022029876708984375,75.0
1756805818.2164404,0.0022029876708984375,53.0
1756805818.2166464,0.0022029876708984375,103.0
1756805818.2168422,0.0022029876708984375,170.0
1756805818.2196763,0.0022029876708984375,168.0
1756805818.2207131,0.0022029876708984375,88.0
1756805818.222837,0.0022029876708984375,18.0
1756805818.2247458,0.0022029876708984375,37.0
1756805818.2280433,0.0022029876708984375,126.0
1756805818.2286067,0.0022029876708984375,185.0
1756805818.233214,0.0022029876708984375,143.0
1756805818.2334228,0.0022029876708984375,43.0
1756805818.2346048,0.0022029876708984375,-4.0
1756805818.2365615,0.0022029876708984375,53.0
1756805818.238545,0.0022029876708984375,154.0
1756805818.240607,0.0022029876708984375,198.0
1756805818.2425628,0.0022029876708984375,151.0
1756805818.2448823,0.0022029876708984375,78.0
1756805818.2452297,-0.04119873046875,78.0
1756805818.2465158,-0.04119873046875,54.0
1756805818.2484424,-0.04119873046875,82.0
1756805818.2503495,-0.04119873046875,100.0
1756805818.2524502,-0.04119873046875,67.0
1756805818.2576756,-0.04119873046875,5.0
1756805818.2581604,-0.04119873046875,-38.0
1756805818.258364,-0.04119873046875,-47.0
1756805818.2601743,-0.04119873046875,-56.0
1756805818.2632153,-0.04119873046875,-85.0
1756805818.2835798,-0.04119873046875,-108.0
1756805818.283899,-0.04119873046875,-92.0
1756805818.2841766,-0.04119873046875,-43.0
1756805818.284452,-0.04119873046875,-5.0
1756805818.2847216,-0.04119873046875,-7.0
1756805818.284992,-0.04119873046875,-23.0
1756805818.2853205,-0.04119873046875,-23.0
1756805818.2899137,-0.04119873046875,-8.0
1756805818.2907143,-0.04119873046875,-13.0
1756805818.290998,-0.04119873046875,-59.0
1756805818.2912934,-0.04119873046875,-118.0
1756805818.294326,-0.04119873046875,-146.0
1756805818.2959194,-0.047393798828125,-146.0
1756805818.2967598,-0.047393798828125,-131.0
1756805818.297092,-0.047393798828125,-107.0
1756805818.2998207,-0.047393798828125,-109.0
1756805818.300769,-0.047393798828125,-140.0
1756805818.3010926,-0.047393798828125,-179.0
1756805818.3013518,-0.047393798828125,-203.0
1756805818.3015485,-0.047393798828125,-204.0
1756805818.3017445,-0.047393798828125,-183.0
1756805818.303426,-0.047393798828125,-157.0
1756805818.3053281,-0.047393798828125,-160.0
1756805818.3072789,-0.047393798828125,-212.0
1756805818.3094392,-0.047393798828125,-284.0
1756805818.311395,-0.047393798828125,-315.0
1756805818.3132012,-0.047393798828125,-274.0
1756805818.3449268,-0.047393798828125,-203.0
1756805818.34542,-0.047393798828125,-182.0
1756805818.3456233,-0.047393798828125,-235.0
1756805818.3460853,-0.047393798828125,-306.0
1756805818.3463655,-0.047393798828125,-323.0
1756805818.3465614,-0.11053466796875,-323.0
1756805818.346566,-0.11053466796875,-280.0
1756805818.3467617,-0.11053466796875,-254.0
1756805818.3472927,-0.11053466796875,-298.0
1756805818.3478067,-0.11053466796875,-371.0
1756805818.3519483,-0.11053466796875,-386.0
1756805818.352171,-0.11053466796875,-325.0
1756805818.3523705,-0.11053466796875,-275.0
1756805818.352568,-0.11053466796875,-317.0
1756805818.3527915,-0.11053466796875,-419.0
1756805818.3529882,-0.11053466796875,-471.0
1756805818.3531837,-0.11053466796875,-416.0
1756805818.353381,-0.11053466796875,-331.0
1756805818.353577,-0.11053466796875,-328.0
1756805818.3537745,-0.11053466796875,-427.0
1756805818.3540592,-0.11053466796875,-526.0
1756805818.3555791,-0.11053466796875,-525.0
1756805818.356498,-0.11053466796875,-441.0
1756805818.3587282,-0.11053466796875,-375.0
1756805818.360646,-0.11053466796875,-380.0
1756805818.364776,-0.11053466796875,-414.0
1756805818.365399,-0.11053466796875,-417.0
1756805818.3661613,-0.11053466796875,-389.0
1756805818.3681414,-0.11053466796875,-378.0
1756805818.370878,-0.11053466796875,-404.0
1756805818.3727548,-0.11053466796875,-432.0
1756805818.3749468,-0.11053466796875,-434.0
1756805818.376006,-0.11053466796875,-427.0
1756805818.377886,-0.11053466796875,-452.0
1756805818.3798614,-0.11053466796875,-508.0
1756805818.3818676,-0.11053466796875,-553.0
1756805818.3846579,-0.11053466796875,-555.0
1756805818.3862216,-0.11053466796875,-518.0
1756805818.3876846,-0.11053466796875,-477.0
1756805818.3896399,-0.11053466796875,-459.0
1756805818.3916063,-0.11053466796875,-472.0
1756805818.3935547,-0.11053466796875,-503.0
1756805818.3955095,-0.11053466796875,-532.0
1756805818.3974812,-0.11053466796875,-535.0
1756805818.3989267,-0.15576171875,-535.0
1756805818.3995645,-0.15576171875,-504.0
1756805818.4018404,-0.15576171875,-471.0
1756805818.4034882,-0.15576171875,-475.0
1756805818.4094267,-0.15576171875,-515.0
1756805818.4096718,-0.15576171875,-551.0
1756805818.4098551,-0.15576171875,-550.0
1756805818.411364,-0.15576171875,-524.0
1756805818.41337,-0.15576171875,-510.0
1756805818.4154685,-0.15576171875,-512.0
1756805818.4175277,-0.15576171875,-507.0
1756805818.4192157,-0.15576171875,-478.0
1756805818.4235682,-0.15576171875,-455.0
1756805818.4238195,-0.15576171875,-468.0
1756805818.4254837,-0.15576171875,-512.0
1756805818.4270484,-0.15576171875,-542.0
1756805818.4289427,-0.15576171875,-529.0
1756805818.4312377,-0.15576171875,-489.0
1756805818.433092,-0.15576171875,-467.0
1756805818.4350882,-0.15576171875,-483.0
1756805818.4385395,-0.15576171875,-517.0
1756805818.4456902,-0.294189453125,-517.0
1756805818.4556847,-0.294189453125,-542.0
1756805818.4568098,-0.294189453125,-543.0
1756805818.4573076,-0.294189453125,-522.0
1756805818.4599845,-0.294189453125,-497.0
1756805818.4602203,-0.294189453125,-489.0
1756805818.4816465,-0.294189453125,-508.0
1756805818.4830759,-0.294189453125,-545.0
1756805818.4833364,-0.294189453125,-573.0
1756805818.4835384,-0.294189453125,-574.0
1756805818.4838357,-0.294189453125,-556.0
1756805818.4840424,-0.294189453125,-543.0
1756805818.4842384,-0.294189453125,-553.0
1756805818.4844346,-0.294189453125,-580.0
1756805818.4846299,-0.294189453125,-605.0
1756805818.4848263,-0.294189453125,-616.0
1756805818.4850225,-0.294189453125,-602.0
1756805818.493647,-0.294189453125,-571.0
1756805818.4939823,-0.294189453125,-547.0
1756805818.4940023,-0.359130859375,-547.0
1756805818.4941988,-0.359130859375,-556.0
1756805818.494396,-0.359130859375,-597.0
1756805818.4945917,-0.359130859375,-628.0
1756805818.4947906,-0.359130859375,-615.0
1756805818.4949875,-0.359130859375,-568.0
1756805818.4951851,-0.359130859375,-537.0
1756805818.4953825,-0.359130859375,-545.0
1756805818.4955797,-0.359130859375,-566.0
1756805818.495784,-0.359130859375,-557.0
1756805818.4960086,-0.359130859375,-521.0
1756805818.4962068,-0.359130859375,-493.0
1756805818.4964023,-0.359130859375,-499.0
1756805818.4979455,-0.359130859375,-520.0
1756805818.4998436,-0.359130859375,-528.0
1756805818.5075576,-0.359130859375,-527.0
1756805818.507795,-0.359130859375,-546.0
1756805818.5079982,-0.359130859375,-588.0
1756805818.5082798,-0.359130859375,-620.0
1756805818.5097299,-0.359130859375,-605.0
1756805818.512062,-0.359130859375,-548.0
1756805818.5156496,-0.359130859375,-486.0
1756805818.5160115,-0.359130859375,-451.0
1756805818.5175622,-0.359130859375,-444.0
1756805818.5206091,-0.359130859375,-443.0
1756805818.521599,-0.359130859375,-428.0
1756805818.5235643,-0.359130859375,-397.0
1756805818.527508,-0.359130859375,-372.0
1756805818.5279903,-0.359130859375,-383.0
1756805818.5294733,-0.359130859375,-438.0
1756805818.531422,-0.359130859375,-509.0
1756805818.533468,-0.359130859375,-564.0
1756805818.5353034,-0.359130859375,-580.0
1756805818.5372803,-0.359130859375,-570.0
1756805818.5392845,-0.359130859375,-558.0
1756805818.5412958,-0.359130859375,-564.0
1756805818.5431828,-0.359130859375,-587.0
1756805818.5452404,-0.359130859375,-613.0
1756805818.5459318,-0.38134765625,-613.0
1756805818.5472066,-0.38134765625,-622.0
1756805818.549014,-0.38134765625,-602.0
1756805818.5519361,-0.38134765625,-570.0
1756805818.5530088,-0.38134765625,-550.0
1756805818.5549595,-0.38134765625,-551.0
1756805818.556861,-0.38134765625,-543.0
1756805818.5618865,-0.38134765625,-500.0
1756805818.5621157,-0.38134765625,-441.0
1756805818.562845,-0.38134765625,-422.0
1756805818.5647218,-0.38134765625,-473.0
1756805818.5668027,-0.38134765625,-544.0
1756805818.5686152,-0.38134765625,-569.0
1756805818.5706987,-0.38134765625,-539.0
1756805818.572826,-0.38134765625,-524.0
1756805818.5802047,-0.38134765625,-571.0
1756805818.5811849,-0.38134765625,-643.0
1756805818.5813947,-0.38134765625,-661.0
1756805818.5815914,-0.38134765625,-604.0
1756805818.5824702,-0.38134765625,-534.0
1756805818.584618,-0.38134765625,-516.0
1756805818.5864372,-0.38134765625,-554.0
1756805818.5908453,-0.38134765625,-605.0
1756805818.5913289,-0.38134765625,-638.0
1756805818.593554,-0.30810546875,-638.0
1756805818.6002297,-0.30810546875,-657.0
1756805818.602296,-0.30810546875,-671.0
1756805818.6027267,-0.30810546875,-682.0
1756805818.6035533,-0.30810546875,-701.0
1756805818.6039171,-0.30810546875,-743.0
1756805818.6051736,-0.30810546875,-798.0
1756805818.6054482,-0.30810546875,-827.0
1756805818.6074836,-0.30810546875,-780.0
1756805818.6080313,-0.30810546875,-683.0
1756805818.610075,-0.30810546875,-616.0
1756805818.613056,-0.30810546875,-626.0
1756805818.61868,-0.30810546875,-684.0
1756805818.618931,-0.30810546875,-717.0
1756805818.6245093,-0.30810546875,-691.0
1756805818.624748,-0.30810546875,-645.0
1756805818.6249483,-0.30810546875,-626.0
1756805818.6251445,-0.30810546875,-641.0
1756805818.6256723,-0.30810546875,-659.0
1756805818.6277196,-0.30810546875,-661.0
1756805818.6296363,-0.30810546875,-654.0
1756805818.6457968,-0.2093505859375,-654.0
1756805818.6507413,-0.2093505859375,-641.0
1756805818.6513488,-0.2093505859375,-613.0
1756805818.6515818,-0.2093505859375,-568.0
1756805818.6517825,-0.2093505859375,-538.0
1756805818.6519802,-0.2093505859375,-551.0
1756805818.6521773,-0.2093505859375,-592.0
1756805818.652563,-0.2093505859375,-605.0
1756805818.6527863,-0.2093505859375,-565.0
1756805818.6529841,-0.2093505859375,-506.0
1756805818.65318,-0.2093505859375,-494.0
1756805818.6550062,-0.2093505859375,-538.0
1756805818.656045,-0.2093505859375,-579.0
1756805818.6567411,-0.2093505859375,-561.0
1756805818.6571302,-0.2093505859375,-499.0
1756805818.6608667,-0.2093505859375,-459.0
1756805818.6615932,-0.2093505859375,-479.0
1756805818.6646774,-0.2093505859375,-513.0
1756805818.6650467,-0.2093505859375,-495.0
1756805818.6674304,-0.2093505859375,-420.0
1756805818.669075,-0.2093505859375,-362.0
1756805818.6709273,-0.2093505859375,-380.0
1756805818.6728632,-0.2093505859375,-443.0
1756805818.6747515,-0.2093505859375,-475.0
1756805818.6768148,-0.2093505859375,-438.0
1756805818.67883,-0.2093505859375,-382.0
1756805818.680728,-0.2093505859375,-376.0
1756805818.6827223,-0.2093505859375,-412.0
1756805818.6848898,-0.2093505859375,-425.0
1756805818.6866415,-0.2093505859375,-369.0
1756805818.6909235,-0.2093505859375,-285.0
1756805818.6913257,-0.2093505859375,-248.0
1756805818.6948442,-0.002025604248046875,-248.0
1756805818.6997225,-0.002025604248046875,-283.0
1756805818.6999643,-0.002025604248046875,-343.0
1756805818.700167,-0.002025604248046875,-375.0
1756805818.7005692,-0.002025604248046875,-383.0
1756805818.700768,-0.002025604248046875,-411.0
1756805818.702227,-0.002025604248046875,-468.0
1756805818.7045887,-0.002025604248046875,-516.0
1756805818.7063038,-0.002025604248046875,-522.0
1756805818.7082675,-0.002025604248046875,-495.0
1756805818.7147665,-0.002025604248046875,-466.0
1756805818.715212,-0.002025604248046875,-445.0
1756805818.7154336,-0.002025604248046875,-401.0
1756805818.7161233,-0.002025604248046875,-318.0
1756805818.7181094,-0.002025604248046875,-240.0
1756805818.720098,-0.002025604248046875,-228.0
1756805818.7220805,-0.002025604248046875,-287.0
1756805818.7240062,-0.002025604248046875,-355.0
1756805818.7287097,-0.002025604248046875,-382.0
1756805818.728949,-0.002025604248046875,-376.0
1756805818.7298942,-0.002025604248046875,-380.0
1756805818.7318892,-0.002025604248046875,-409.0
1756805818.7338495,-0.002025604248046875,-433.0
1756805818.736266,-0.002025604248046875,-434.0
1756805818.737735,-0.002025604248046875,-427.0
1756805818.7406168,-0.002025604248046875,-425.0
1756805818.7417161,-0.002025604248046875,-399.0
1756805818.7465959,0.12103271484375,-399.0
1756805818.7647917,0.12103271484375,-329.0
1756805818.765672,0.12103271484375,-260.0
1756805818.767937,0.12103271484375,-271.0
1756805818.7689652,0.12103271484375,-378.0
1756805818.7714815,0.12103271484375,-486.0
1756805818.7729237,0.12103271484375,-503.0
1756805818.7732296,0.12103271484375,-463.0
1756805818.773432,0.12103271484375,-495.0
1756805818.773644,0.12103271484375,-669.0
1756805818.773842,0.12103271484375,-906.0
1756805818.7744904,0.12103271484375,-1075.0
1756805818.7747018,0.12103271484375,-1145.0
1756805818.7751448,0.12103271484375,-1206.0
1756805818.7753432,0.12103271484375,-1333.0
1756805818.7755485,0.12103271484375,-1500.0
1756805818.7757452,0.12103271484375,-1634.0
1756805818.77623,0.12103271484375,-1711.0
1756805818.7770987,0.12103271484375,-1763.0
1756805818.7803898,0.12103271484375,-1785.0
1756805818.7809272,0.12103271484375,-1731.0
1756805818.7831752,0.12103271484375,-1579.0
1756805818.7849185,0.12103271484375,-1381.0
1756805818.7870872,0.12103271484375,-1221.0
1756805818.788745,0.12103271484375,-1113.0
1756805818.791031,0.12103271484375,-986.0
1756805818.7947505,0.1522216796875,-986.0
1756805818.7952006,0.1522216796875,-794.0
1756805818.7959473,0.1522216796875,-582.0
1756805818.7972226,0.1522216796875,-438.0
1756805818.8009186,0.1522216796875,-390.0
1756805818.8013415,0.1522216796875,-382.0
1756805818.802541,0.1522216796875,-343.0
1756805818.8107054,0.1522216796875,-276.0
1756805818.8229434,0.1522216796875,-241.0
1756805818.823208,0.1522216796875,-275.0
1756805818.8235767,0.1522216796875,-339.0
1756805818.8237727,0.1522216796875,-370.0
1756805818.823969,0.1522216796875,-350.0
1756805818.824165,0.1522216796875,-315.0
1756805818.824361,0.1522216796875,-312.0
1756805818.8245566,0.1522216796875,-341.0
1756805818.8247507,0.1522216796875,-367.0
1756805818.824947,0.1522216796875,-374.0
1756805818.8261528,0.1522216796875,-362.0
1756805818.828136,0.1522216796875,-341.0
1756805818.8301582,0.1522216796875,-319.0
1756805818.8320549,0.1522216796875,-305.0
1756805818.8341477,0.1522216796875,-313.0
1756805818.8361907,0.1522216796875,-352.0
1756805818.8379009,0.1522216796875,-394.0
1756805818.840563,0.1522216796875,-392.0
1756805818.8419363,0.1522216796875,-328.0
1756805818.843983,0.1522216796875,-248.0
1756805818.8459566,0.1522216796875,-216.0
1756805818.8461022,0.0989990234375,-216.0
1756805818.8483868,0.0989990234375,-264.0
1756805818.8498564,0.0989990234375,-345.0
1756805818.8517566,0.0989990234375,-384.0
1756805818.8536758,0.0989990234375,-348.0
1756805818.8556533,0.0989990234375,-283.0
1756805818.8576572,0.0989990234375,-265.0
1756805818.8712847,0.0989990234375,-322.0
1756805818.8716052,0.0989990234375,-408.0
1756805818.8718092,0.0989990234375,-452.0
1756805818.872009,0.0989990234375,-419.0
1756805818.8722942,0.0989990234375,-350.0
1756805818.8725474,0.0989990234375,-314.0
1756805818.87277,0.0989990234375,-328.0
1756805818.873441,0.0989990234375,-359.0
1756805818.8754077,0.0989990234375,-360.0
1756805818.877225,0.0989990234375,-318.0
1756805818.8791723,0.0989990234375,-271.0
1756805818.8817904,0.0989990234375,-261.0
1756805818.8839386,0.0989990234375,-299.0
1756805818.885133,0.0989990234375,-355.0
1756805818.8871176,0.0989990234375,-397.0
1756805818.889072,0.0989990234375,-418.0
1756805818.8910363,0.0989990234375,-428.0
1756805818.8930802,0.0989990234375,-440.0
1756805818.8949795,0.0989990234375,-450.0
1756805818.8955863,0.12481689453125,-450.0
1756805818.8969476,0.12481689453125,-449.0
1756805818.898902,0.12481689453125,-440.0
1756805818.900995,0.12481689453125,-447.0
1756805818.9054198,0.12481689453125,-479.0
1756805818.9056275,0.12481689453125,-511.0
1756805818.9067097,0.12481689453125,-505.0
1756805818.9086754,0.12481689453125,-459.0
1756805818.910808,0.12481689453125,-428.0
1756805818.9168057,0.12481689453125,-458.0
1756805818.9170585,0.12481689453125,-533.0
1756805818.917257,0.12481689453125,-574.0
1756805818.9186006,0.12481689453125,-541.0
1756805818.9204774,0.12481689453125,-474.0
1756805818.9225624,0.12481689453125,-445.0
1756805818.924465,0.12481689453125,-476.0
1756805818.9264925,0.12481689453125,-516.0
1756805818.9283974,0.12481689453125,-512.0
1756805818.9303637,0.12481689453125,-474.0
1756805818.9323764,0.12481689453125,-441.0
1756805818.934412,0.12481689453125,-430.0
1756805818.936469,0.12481689453125,-418.0
1756805818.9381115,0.12481689453125,-399.0
1756805818.9402587,0.12481689453125,-392.0
1756805818.9421718,0.12481689453125,-414.0
1756805818.9440994,0.12481689453125,-457.0
1756805818.9461424,0.12481689453125,-488.0
1756805818.946795,0.03594970703125,-488.0
1756805818.9480884,0.03594970703125,-499.0
1756805818.9500415,0.03594970703125,-506.0
1756805818.9520252,0.03594970703125,-528.0
1756805818.9539406,0.03594970703125,-562.0
1756805818.9559026,0.03594970703125,-585.0
1756805818.958366,0.03594970703125,-584.0
1756805818.961877,0.03594970703125,-563.0
1756805818.9621596,0.03594970703125,-538.0
1756805818.9637141,0.03594970703125,-529.0
1756805818.965736,0.03594970703125,-542.0
1756805818.967759,0.03594970703125,-550.0
1756805818.970686,0.03594970703125,-532.0
1756805818.9715848,0.03594970703125,-498.0
1756805818.9736164,0.03594970703125,-495.0
1756805818.9756808,0.03594970703125,-543.0
1756805818.977672,0.03594970703125,-604.0
1756805818.9796698,0.03594970703125,-619.0
1756805818.9815292,0.03594970703125,-588.0
1756805818.9834278,0.03594970703125,-573.0
1756805818.9853706,0.03594970703125,-627.0
1756805818.9878366,0.03594970703125,-711.0
1756805818.9896538,0.03594970703125,-740.0
1756805818.9916754,0.03594970703125,-692.0
1756805818.9932847,0.03594970703125,-644.0
1756805818.9952297,0.03594970703125,-676.0
1756805818.9974184,-0.244140625,-676.0
1756805818.998096,-0.244140625,-770.0
1756805818.9991937,-0.244140625,-828.0
1756805819.0012984,-0.244140625,-796.0
1756805819.0032105,-0.244140625,-726.0
1756805819.0083969,-0.244140625,-724.0
1756805819.0092752,-0.244140625,-810.0
1756805819.0138345,-0.244140625,-902.0
1756805819.0242276,-0.244140625,-907.0
1756805819.0309386,-0.244140625,-827.0
1756805819.0341494,-0.244140625,-753.0
1756805819.0344727,-0.244140625,-758.0
1756805819.037627,-0.244140625,-823.0
1756805819.0453,-0.244140625,-869.0
1756805819.0456471,-0.320068359375,-869.0
1756805819.0457752,-0.320068359375,-852.0
1756805819.0462308,-0.320068359375,-806.0
1756805819.0465581,-0.320068359375,-791.0
1756805819.0475035,-0.320068359375,-822.0
1756805819.0477028,-0.320068359375,-864.0
1756805819.0478992,-0.320068359375,-891.0
1756805819.048095,-0.320068359375,-908.0
1756805819.048291,-0.320068359375,-920.0
1756805819.0484867,-0.320068359375,-906.0
1756805819.0486827,-0.320068359375,-859.0
1756805819.0488794,-0.320068359375,-821.0
1756805819.0494943,-0.320068359375,-851.0
1756805819.049702,-0.320068359375,-950.0
1756805819.0498977,-0.320068359375,-1036.0
1756805819.0501478,-0.320068359375,-1030.0
1756805819.0521512,-0.320068359375,-955.0
1756805819.0542107,-0.320068359375,-913.0
1756805819.0560884,-0.320068359375,-973.0
1756805819.0580893,-0.320068359375,-1079.0
1756805819.062302,-0.320068359375,-1120.0
1756805819.062564,-0.320068359375,-1049.0
1756805819.06399,-0.320068359375,-931.0
1756805819.0660813,-0.320068359375,-861.0
1756805819.0679197,-0.320068359375,-866.0
1756805819.0699148,-0.320068359375,-902.0
1756805819.071865,-0.320068359375,-913.0
1756805819.073997,-0.320068359375,-884.0
1756805819.0758724,-0.320068359375,-842.0
1756805819.0778623,-0.320068359375,-806.0
1756805819.079814,-0.320068359375,-778.0
1756805819.081761,-0.320068359375,-755.0
1756805819.0837278,-0.320068359375,-737.0
1756805819.0855355,-0.320068359375,-712.0
1756805819.0877132,-0.320068359375,-668.0
1756805819.0902514,-0.320068359375,-592.0
1756805819.0908585,-0.422607421875,-592.0
1756805819.0914795,-0.422607421875,-497.0
1756805819.0934768,-0.422607421875,-424.0
1756805819.0964978,-0.422607421875,-400.0
1756805819.097426,-0.422607421875,-416.0
1756805819.0998588,-0.422607421875,-430.0
1756805819.1012957,-0.422607421875,-411.0
1756805819.1033547,-0.422607421875,-367.0
1756805819.107487,-0.422607421875,-334.0
1756805819.107718,-0.422607421875,-331.0
1756805819.111535,-0.422607421875,-341.0
1756805819.111796,-0.422607421875,-331.0
1756805819.113951,-0.422607421875,-288.0
1756805819.1155753,-0.422607421875,-233.0
1756805819.1348913,-0.422607421875,-204.0
1756805819.1360884,-0.422607421875,-205.0
1756805819.1362863,-0.422607421875,-209.0
1756805819.136446,-0.422607421875,-181.0
1756805819.13661,-0.422607421875,-113.0
1756805819.1367648,-0.422607421875,-37.0
1756805819.1369193,-0.422607421875,7.0
1756805819.137072,-0.422607421875,6.0
1756805819.1372254,-0.422607421875,-11.0
1756805819.1373782,-0.422607421875,-11.0
1756805819.137531,-0.422607421875,11.0
1756805819.1388156,-0.422607421875,35.0
1756805819.140714,-0.422607421875,46.0
1756805819.1425624,-0.422607421875,60.0
1756805819.144622,-0.422607421875,96.0
1756805819.146051,-0.498291015625,96.0
1756805819.1466317,-0.498291015625,139.0
1756805819.15017,-0.498291015625,148.0
1756805819.1506255,-0.498291015625,112.0
1756805819.1523354,-0.498291015625,73.0
1756805819.1542726,-0.498291015625,81.0
1756805819.1562877,-0.498291015625,125.0
1756805819.1588516,-0.498291015625,135.0
1756805819.1601923,-0.498291015625,67.0
1756805819.162081,-0.498291015625,-30.0
1756805819.1644092,-0.498291015625,-67.0
1756805819.1660428,-0.498291015625,-12.0
1756805819.1679733,-0.498291015625,66.0
1756805819.1701937,-0.498291015625,83.0
1756805819.172034,-0.498291015625,44.0
1756805819.1741536,-0.498291015625,35.0
1756805819.1761286,-0.498291015625,100.0
1756805819.1780844,-0.498291015625,181.0
1756805819.1929483,-0.415771484375,181.0
1756805819.1934981,-0.415771484375,187.0
1756805819.1942034,-0.415771484375,106.0
1756805819.194388,-0.415771484375,30.0
1756805819.1945453,-0.415771484375,40.0
1756805819.196208,-0.415771484375,114.0
1756805819.1973705,-0.415771484375,157.0
1756805819.197434,-0.415771484375,108.0
1756805819.1975043,-0.415771484375,16.0
1756805819.1975632,-0.415771484375,-20.0
1756805819.1976218,-0.415771484375,36.0
1756805819.199483,-0.415771484375,123.0
1756805819.20177,-0.415771484375,150.0
1756805819.214126,-0.415771484375,94.0
1756805819.2142255,-0.415771484375,9.0
1756805819.2142804,-0.415771484375,-41.0
1756805819.2143276,-0.415771484375,-41.0
1756805819.2144458,-0.415771484375,-22.0
1756805819.2146397,-0.415771484375,-23.0
1756805819.2159445,-0.415771484375,-45.0
1756805819.2171648,-0.415771484375,-64.0
1756805819.2195938,-0.415771484375,-64.0
1756805819.2214437,-0.415771484375,-48.0
1756805819.2231243,-0.415771484375,-40.0
1756805819.2251544,-0.415771484375,-60.0
1756805819.2271352,-0.415771484375,-103.0
1756805819.2289808,-0.415771484375,-146.0
1756805819.231248,-0.415771484375,-158.0
1756805819.2330668,-0.415771484375,-125.0
1756805819.234978,-0.415771484375,-72.0
1756805819.2371454,-0.415771484375,-38.0
1756805819.24298,-0.415771484375,-38.0
1756805819.2431102,-0.415771484375,-50.0
1756805819.2431555,-0.415771484375,-38.0
1756805819.2434173,-0.011322021484375,-38.0
1756805819.24504,-0.011322021484375,-10.0
1756805819.2466352,-0.011322021484375,-4.0
1756805819.2486115,-0.011322021484375,-46.0
1756805819.2505257,-0.011322021484375,-111.0
1756805819.2534115,-0.011322021484375,-161.0
1756805819.254533,-0.011322021484375,-188.0
1756805819.2564797,-0.011322021484375,-218.0
1756805819.2584546,-0.011322021484375,-263.0
1756805819.2604125,-0.011322021484375,-302.0
1756805819.2631614,-0.011322021484375,-301.0
1756805819.2643383,-0.011322021484375,-267.0
1756805819.2665946,-0.011322021484375,-234.0
1756805819.2686744,-0.011322021484375,-222.0
1756805819.2704449,-0.011322021484375,-216.0
1756805819.2723854,-0.011322021484375,-201.0
1756805819.2746704,-0.011322021484375,-194.0
1756805819.2762537,-0.011322021484375,-211.0
1756805819.2781394,-0.011322021484375,-237.0
1756805819.2800958,-0.011322021484375,-245.0
1756805819.2820466,-0.011322021484375,-233.0
1756805819.2840297,-0.011322021484375,-232.0
1756805819.285992,-0.011322021484375,-255.0
1756805819.2879536,-0.011322021484375,-278.0
1756805819.2899072,-0.011322021484375,-271.0
1756805819.2908828,0.3232421875,-271.0
1756805819.2918751,0.3232421875,-247.0
1756805819.2938209,0.3232421875,-250.0
1756805819.2958407,0.3232421875,-297.0
1756805819.2979403,0.3232421875,-353.0
1756805819.300814,0.3232421875,-374.0
1756805819.3018367,0.3232421875,-364.0
1756805819.3040128,0.3232421875,-364.0
1756805819.3057642,0.3232421875,-394.0
1756805819.3079123,0.3232421875,-424.0
1756805819.3097348,0.3232421875,-415.0
1756805819.3117232,0.3232421875,-361.0
1756805819.3138452,0.3232421875,-300.0
1756805819.315709,0.3232421875,-278.0
1756805819.3177843,0.3232421875,-298.0
1756805819.3195899,0.3232421875,-330.0
1756805819.3217993,0.3232421875,-338.0
1756805819.325108,0.3232421875,-310.0
1756805819.3254673,0.3232421875,-274.0
1756805819.3275688,0.3232421875,-263.0
1756805819.3294358,0.3232421875,-292.0
1756805819.3313575,0.3232421875,-338.0
1756805819.3333502,0.3232421875,-366.0
1756805819.3352354,0.3232421875,-366.0
1756805819.337325,0.3232421875,-348.0
1756805819.3392038,0.3232421875,-333.0
1756805819.342158,0.3232421875,-335.0
1756805819.3430057,-0.0269927978515625,-335.0
1756805819.3432183,-0.0269927978515625,-358.0
1756805819.3451018,-0.0269927978515625,-396.0
1756805819.3471444,-0.0269927978515625,-425.0
1756805819.3491008,-0.0269927978515625,-421.0
1756805819.350986,-0.0269927978515625,-388.0
1756805819.3530588,-0.0269927978515625,-366.0
1756805819.3560975,-0.0269927978515625,-397.0
1756805819.356837,-0.0269927978515625,-462.0
1756805819.358757,-0.0269927978515625,-487.0
1756805819.3608005,-0.0269927978515625,-422.0
1756805819.3627222,-0.0269927978515625,-303.0
1756805819.364733,-0.0269927978515625,-224.0
1756805819.3678334,-0.0269927978515625,-241.0
1756805819.3686447,-0.0269927978515625,-310.0
1756805819.3709779,-0.0269927978515625,-338.0
1756805819.3725436,-0.0269927978515625,-288.0
1756805819.3750098,-0.0269927978515625,-221.0
1756805819.3765762,-0.0269927978515625,-227.0
1756805819.3785126,-0.0269927978515625,-330.0
1756805819.3804321,-0.0269927978515625,-458.0
1756805819.3825355,-0.0269927978515625,-511.0
1756805819.3844345,-0.0269927978515625,-473.0
1756805819.3864026,-0.0269927978515625,-417.0
1756805819.3884144,-0.0269927978515625,-413.0
1756805819.3903391,-0.0269927978515625,-464.0
1756805819.3922255,-0.0269927978515625,-505.0
1756805819.3942802,-0.0269927978515625,-486.0
1756805819.3963213,-0.27294921875,-486.0
1756805819.3963253,-0.27294921875,-422.0
1756805819.3981605,-0.27294921875,-367.0
1756805819.4001155,-0.27294921875,-343.0
1756805819.4024775,-0.27294921875,-328.0
1756805819.4043794,-0.27294921875,-309.0
1756805819.4059968,-0.27294921875,-301.0
1756805819.4086275,-0.27294921875,-325.0
1756805819.4100342,-0.27294921875,-369.0
1756805819.4142058,-0.27294921875,-396.0
1756805819.4148862,-0.27294921875,-382.0
1756805819.4173412,-0.27294921875,-348.0
1756805819.4179137,-0.27294921875,-335.0
1756805819.4197268,-0.27294921875,-359.0
1756805819.4218163,-0.27294921875,-406.0
1756805819.4236314,-0.27294921875,-445.0
1756805819.4274526,-0.27294921875,-445.0
1756805819.42769,-0.27294921875,-404.0
1756805819.4295993,-0.27294921875,-356.0
1756805819.4315968,-0.27294921875,-340.0
1756805819.4335196,-0.27294921875,-365.0
1756805819.4354427,-0.27294921875,-392.0
1756805819.4374747,-0.27294921875,-383.0
1756805819.4394274,-0.27294921875,-347.0
1756805819.4413724,-0.27294921875,-341.0
1756805819.4433618,-0.27294921875,-391.0
1756805819.44351,-0.51806640625,-391.0
1756805819.4453015,-0.51806640625,-443.0
1756805819.44729,-0.51806640625,-425.0
1756805819.449259,-0.51806640625,-343.0
1756805819.4511955,-0.51806640625,-289.0
1756805819.453708,-0.51806640625,-333.0
1756805819.4561872,-0.51806640625,-431.0
1756805819.4636705,-0.51806640625,-474.0
1756805819.464114,-0.51806640625,-417.0
1756805819.4643178,-0.51806640625,-344.0
1756805819.4645133,-0.51806640625,-360.0
1756805819.464955,-0.51806640625,-463.0
1756805819.4675965,-0.51806640625,-544.0
1756805819.4688828,-0.51806640625,-521.0
1756805819.47086,-0.51806640625,-436.0
1756805819.4728732,-0.51806640625,-388.0
1756805819.474972,-0.51806640625,-406.0
1756805819.4768677,-0.51806640625,-415.0
1756805819.4787238,-0.51806640625,-357.0
1756805819.481992,-0.51806640625,-279.0
1756805819.482713,-0.51806640625,-286.0
1756805819.4846423,-0.51806640625,-395.0
1756805819.486527,-0.51806640625,-498.0
1756805819.488593,-0.51806640625,-491.0
1756805819.4905548,-0.51806640625,-393.0
1756805819.4919689,-0.472900390625,-393.0
1756805819.492468,-0.472900390625,-327.0
1756805819.4944391,-0.472900390625,-370.0
1756805819.4963613,-0.472900390625,-458.0
1756805819.4994133,-0.472900390625,-466.0
1756805819.500403,-0.472900390625,-353.0
1756805819.5023181,-0.472900390625,-210.0
1756805819.5043824,-0.472900390625,-157.0
1756805819.507893,-0.472900390625,-213.0
1756805819.5081387,-0.472900390625,-292.0
1756805819.51522,-0.472900390625,-323.0
1756805819.5158055,-0.472900390625,-323.0
1756805819.5175133,-0.472900390625,-359.0
1756805819.5177965,-0.472900390625,-457.0
1756805819.5180025,-0.472900390625,-560.0
1756805819.5200696,-0.472900390625,-602.0
1756805819.522505,-0.472900390625,-580.0
1756805819.53896,-0.472900390625,-547.0
1756805819.5438843,-0.341796875,-547.0
1756805819.5447803,-0.341796875,-535.0
1756805819.5467553,-0.341796875,-520.0
1756805819.5473514,-0.341796875,-472.0
1756805819.547555,-0.341796875,-410.0
1756805819.547751,-0.341796875,-383.0
1756805819.5479481,-0.341796875,-401.0
1756805819.5492904,-0.341796875,-424.0
1756805819.550582,-0.341796875,-411.0
1756805819.5517378,-0.341796875,-379.0
1756805819.5521507,-0.341796875,-376.0
1756805819.5523474,-0.341796875,-412.0
1756805819.553303,-0.341796875,-453.0
1756805819.5535,-0.341796875,-485.0
1756805819.5536962,-0.341796875,-536.0
1756805819.5538902,-0.341796875,-620.0
1756805819.5558858,-0.341796875,-684.0
1756805819.5580869,-0.341796875,-660.0
1756805819.5614448,-0.341796875,-567.0
1756805819.5618277,-0.341796875,-512.0
1756805819.5632277,-0.341796875,-566.0
1756805819.5675461,-0.341796875,-663.0
1756805819.5680935,-0.341796875,-664.0
1756805819.5691679,-0.341796875,-533.0
1756805819.5713608,-0.341796875,-391.0
1756805819.5731976,-0.341796875,-370.0
1756805819.575096,-0.341796875,-460.0
1756805819.5788372,-0.341796875,-538.0
1756805819.5802321,-0.341796875,-525.0
1756805819.581822,-0.341796875,-479.0
1756805819.5828857,-0.341796875,-493.0
1756805819.5851886,-0.341796875,-565.0
1756805819.5869915,-0.341796875,-609.0
1756805819.5890534,-0.341796875,-576.0
1756805819.5907435,-0.341796875,-525.0
1756805819.5914648,-0.2607421875,-525.0
1756805819.5927567,-0.2607421875,-538.0
1756805819.5949287,-0.2607421875,-599.0
1756805819.596713,-0.2607421875,-611.0
1756805819.5987086,-0.2607421875,-520.0
1756805819.6005645,-0.2607421875,-389.0
1756805819.6039577,-0.2607421875,-322.0
1756805819.6044989,-0.2607421875,-346.0
1756805819.6065645,-0.2607421875,-397.0
1756805819.6143665,-0.2607421875,-397.0
1756805819.6146014,-0.2607421875,-348.0
1756805819.6148,-0.2607421875,-306.0
1756805819.6149957,-0.2607421875,-307.0
1756805819.6164339,-0.2607421875,-327.0
1756805819.6185172,-0.2607421875,-317.0
1756805819.6204863,-0.2607421875,-270.0
1756805819.6222882,-0.2607421875,-223.0
1756805819.6242063,-0.2607421875,-212.0
1756805819.626165,-0.2607421875,-233.0
1756805819.6281497,-0.2607421875,-254.0
1756805819.6301188,-0.2607421875,-255.0
1756805819.6320472,-0.2607421875,-240.0
1756805819.6340501,-0.2607421875,-229.0
1756805819.6360002,-0.2607421875,-231.0
1756805819.6390638,-0.2607421875,-240.0
1756805819.6399634,-0.2607421875,-249.0
1756805819.6418633,-0.2607421875,-253.0
1756805819.6441646,-0.2607421875,-242.0
1756805819.645355,0.375732421875,-242.0
1756805819.646299,0.375732421875,-207.0
1756805819.6478496,0.375732421875,-161.0
1756805819.6509972,0.375732421875,-137.0
1756805819.651637,0.375732421875,-148.0
1756805819.653778,0.375732421875,-169.0
1756805819.6616988,0.375732421875,-168.0
1756805819.6619349,0.375732421875,-146.0
1756805819.6621315,0.375732421875,-145.0
1756805819.6623304,0.375732421875,-189.0
1756805819.6635377,0.375732421875,-242.0
1756805819.6654892,0.375732421875,-247.0
1756805819.6676254,0.375732421875,-194.0
1756805819.6727364,0.375732421875,-132.0
1756805819.6729653,0.375732421875,-105.0
1756805819.6740482,0.375732421875,-111.0
1756805819.6751704,0.375732421875,-103.0
1756805819.677224,0.375732421875,-67.0
1756805819.679352,0.375732421875,-34.0
1756805819.681142,0.375732421875,-44.0
1756805819.6920757,0.908203125,-44.0
1756805819.6925066,0.908203125,-95.0
1756805819.692982,0.908203125,-152.0
1756805819.693186,0.908203125,-190.0
1756805819.6933825,0.908203125,-220.0
1756805819.6935782,0.908203125,-252.0
1756805819.694139,0.908203125,-265.0
1756805819.6950526,0.908203125,-238.0
1756805819.696937,0.908203125,-182.0
1756805819.6988137,0.908203125,-138.0
1756805819.7008727,0.908203125,-135.0
1756805819.702707,0.908203125,-155.0
1756805819.704802,0.908203125,-166.0
1756805819.7067606,0.908203125,-155.0
1756805819.7146611,0.908203125,-145.0
1756805819.7149189,0.908203125,-155.0
1756805819.715118,0.908203125,-181.0
1756805819.7153141,0.908203125,-211.0
1756805819.716742,0.908203125,-243.0
1756805819.7187219,0.908203125,-289.0
1756805819.72058,0.908203125,-344.0
1756805819.722529,0.908203125,-394.0
1756805819.7244396,0.908203125,-436.0
1756805819.7265172,0.908203125,-498.0
1756805819.7284234,0.908203125,-610.0
1756805819.7304661,0.908203125,-775.0
1756805819.732483,0.908203125,-959.0
1756805819.7343328,0.908203125,-1128.0
1756805819.736261,0.908203125,-1279.0
1756805819.7382083,0.908203125,-1432.0
1756805819.740234,0.908203125,-1582.0
1756805819.7427533,0.908203125,-1687.0
1756805819.7430408,1.1416015625,-1687.0
1756805819.7441435,1.1416015625,-1702.0
1756805819.7462327,1.1416015625,-1628.0
1756805819.748259,1.1416015625,-1521.0
1756805819.750043,1.1416015625,-1417.0
1756805819.7519689,1.1416015625,-1292.0
1756805819.7538898,1.1416015625,-1103.0
1756805819.7558775,1.1416015625,-858.0
1756805819.7581584,1.1416015625,-635.0
1756805819.7677364,1.1416015625,-500.0
1756805819.768293,1.1416015625,-430.0
1756805819.7685015,1.1416015625,-344.0
1756805819.768698,1.1416015625,-201.0
1756805819.7688932,1.1416015625,-57.0
1756805819.7696047,1.1416015625,10.0
1756805819.7716272,1.1416015625,-8.0
1756805819.7761607,1.1416015625,-44.0
1756805819.7764606,1.1416015625,-40.0
1756805819.7779813,1.1416015625,-26.0
1756805819.7794995,1.1416015625,-66.0
1756805819.781559,1.1416015625,-158.0
1756805819.7840858,1.1416015625,-245.0
1756805819.7852683,1.1416015625,-284.0
1756805819.7876565,1.1416015625,-295.0
1756805819.795812,1.1416015625,-326.0
1756805819.7963843,1.1416015625,-373.0
1756805819.796778,1.1416015625,-391.0
1756805819.796938,1.1416015625,-359.0
1756805819.7970934,1.1416015625,-314.0
1756805819.799456,1.0478515625,-314.0
1756805819.7999985,1.0478515625,-303.0
1756805819.8020437,1.0478515625,-323.0
1756805819.8029165,1.0478515625,-322.0
1756805819.804858,1.0478515625,-271.0
1756805819.8069568,1.0478515625,-204.0
1756805819.8088157,1.0478515625,-175.0
1756805819.8114073,1.0478515625,-196.0
1756805819.8128586,1.0478515625,-234.0
1756805819.818241,1.0478515625,-255.0
1756805819.8243155,1.0478515625,-262.0
1756805819.8243904,1.0478515625,-276.0
1756805819.824445,1.0478515625,-302.0
1756805819.8244967,1.0478515625,-329.0
1756805819.8295603,1.0478515625,-351.0
1756805819.8297641,1.0478515625,-370.0
1756805819.8299563,1.0478515625,-377.0
1756805819.8306248,1.0478515625,-360.0
1756805819.8329866,1.0478515625,-324.0
1756805819.834408,1.0478515625,-304.0
1756805819.8364606,1.0478515625,-325.0
1756805819.8384314,1.0478515625,-362.0
1756805819.8404355,1.0478515625,-375.0
1756805819.8430674,1.0478515625,-357.0
1756805819.8447757,1.0478515625,-349.0
1756805819.846266,1.0478515625,-370.0
1756805819.848822,1.0478515625,-391.0
1756805819.8501318,1.0478515625,-369.0
1756805819.852095,1.0478515625,-318.0
1756805819.853298,0.7783203125,-318.0
1756805819.8540442,0.7783203125,-288.0
1756805819.8559685,0.7783203125,-291.0
1756805819.8579342,0.7783203125,-280.0
1756805819.8599317,0.7783203125,-215.0
1756805819.8622494,0.7783203125,-137.0
1756805819.8638232,0.7783203125,-132.0
1756805819.865813,0.7783203125,-236.0
1756805819.8677442,0.7783203125,-376.0
1756805819.8697276,0.7783203125,-457.0
1756805819.8716323,0.7783203125,-464.0
1756805819.87361,0.7783203125,-464.0
1756805819.8755856,0.7783203125,-512.0
1756805819.8778415,0.7783203125,-579.0
1756805819.8795521,0.7783203125,-584.0
1756805819.881516,0.7783203125,-496.0
1756805819.8834686,0.7783203125,-367.0
1756805819.8854406,0.7783203125,-274.0
1756805819.8879821,0.7783203125,-246.0
1756805819.889465,0.7783203125,-255.0
1756805819.8914618,0.7783203125,-261.0
1756805819.8933961,0.7783203125,-259.0
1756805819.8953726,0.7783203125,-264.0
1756805819.8983727,0.7783203125,-276.0
1756805819.899226,0.7783203125,-288.0
1756805819.9012864,0.7783203125,-306.0
1756805819.9021206,0.5498046875,-306.0
1756805819.9031699,0.5498046875,-346.0
1756805819.905336,0.5498046875,-395.0
1756805819.9070935,0.5498046875,-415.0
1756805819.9090726,0.5498046875,-388.0
1756805819.9109876,0.5498046875,-352.0
1756805819.9138925,0.5498046875,-365.0
1756805819.9149878,0.5498046875,-430.0
1756805819.9168594,0.5498046875,-482.0
1756805819.9188197,0.5498046875,-470.0
1756805819.920877,0.5498046875,-428.0
1756805819.9228191,0.5498046875,-426.0
1756805819.9247255,0.5498046875,-476.0
1756805819.9271483,0.5498046875,-507.0
1756805819.9286819,0.5498046875,-467.0
1756805819.9310577,0.5498046875,-395.0
1756805819.9326355,0.5498046875,-378.0
1756805819.9346359,0.5498046875,-438.0
1756805819.9366844,0.5498046875,-503.0
1756805819.9384794,0.5498046875,-503.0
1756805819.940474,0.5498046875,-455.0
1756805819.9424307,0.5498046875,-428.0
1756805819.9432557,0.271484375,-428.0
1756805819.9446156,0.271484375,-454.0
1756805819.9463239,0.271484375,-499.0
1756805819.948381,0.271484375,-512.0
1756805819.9505315,0.271484375,-482.0
1756805819.952504,0.271484375,-438.0
1756805819.9543428,0.271484375,-412.0
1756805819.9586098,0.271484375,-416.0
1756805819.965598,0.271484375,-438.0
1756805819.9661925,0.271484375,-461.0
1756805819.9663622,0.271484375,-474.0
1756805819.9665518,0.271484375,-483.0
1756805819.9667065,0.271484375,-505.0
1756805819.9680982,0.271484375,-542.0
1756805819.9702168,0.271484375,-577.0
1756805819.9722188,0.271484375,-593.0
1756805819.9741762,0.271484375,-599.0
1756805819.9761994,0.271484375,-622.0
1756805819.978563,0.271484375,-666.0
1756805819.9800842,0.271484375,-687.0
1756805819.9819608,0.271484375,-648.0
1756805819.984857,0.271484375,-576.0
1756805819.985673,0.271484375,-543.0
1756805819.9876432,0.271484375,-578.0
1756805819.9896388,0.271484375,-629.0
1756805819.9917188,0.271484375,-630.0
1756805819.993498,0.271484375,-589.0
1756805819.9955285,0.271484375,-581.0
1756805819.9974897,0.271484375,-652.0
1756805819.9994311,0.271484375,-754.0
1756805820.0013893,0.271484375,-800.0
1756805820.002058,0.0816650390625,-800.0
1756805820.0033662,0.0816650390625,-775.0
1756805820.0052767,0.0816650390625,-747.0
1756805820.0072465,0.0816650390625,-776.0
1756805820.0092943,0.0816650390625,-834.0
1756805820.014017,0.0816650390625,-843.0
1756805820.0141685,0.0816650390625,-776.0
1756805820.015142,0.0816650390625,-689.0
1756805820.01719,0.0816650390625,-649.0
1756805820.0190673,0.0816650390625,-653.0
1756805820.0213737,0.0816650390625,-652.0
1756805820.0232556,0.0816650390625,-618.0
1756805820.0253348,0.0816650390625,-590.0
1756805820.0271337,0.0816650390625,-619.0
1756805820.029108,0.0816650390625,-703.0
1756805820.030946,0.0816650390625,-785.0
1756805820.0330703,0.0816650390625,-803.0
1756805820.0349553,0.0816650390625,-750.0
1756805820.0369968,0.0816650390625,-681.0
1756805820.0390074,0.0816650390625,-653.0
1756805820.040896,0.0816650390625,-669.0
1756805820.042857,0.0816650390625,-677.0
1756805820.044669,0.0816650390625,-618.0
1756805820.0466995,0.0816650390625,-506.0
1756805820.048586,0.0816650390625,-410.0
1756805820.0489845,-0.089599609375,-410.0
1756805820.0505319,-0.089599609375,-388.0
1756805820.052505,-0.089599609375,-418.0
1756805820.055545,-0.089599609375,-416.0
1756805820.056528,-0.089599609375,-336.0
1756805820.058457,-0.089599609375,-224.0
1756805820.0603552,-0.089599609375,-167.0
1756805820.063729,-0.089599609375,-195.0
1756805820.065859,-0.089599609375,-244.0
1756805820.0662816,-0.089599609375,-241.0
1756805820.0681999,-0.089599609375,-183.0
1756805820.070143,-0.089599609375,-120.0
1756805820.0721793,-0.089599609375,-86.0
1756805820.0740817,-0.089599609375,-68.0
1756805820.076131,-0.089599609375,-34.0
1756805820.0779977,-0.089599609375,17.0
1756805820.080856,-0.089599609375,67.0
1756805820.0819309,-0.089599609375,113.0
1756805820.0840666,-0.089599609375,163.0
1756805820.087078,-0.089599609375,212.0
1756805820.0881035,-0.089599609375,242.0
1756805820.0899973,-0.089599609375,247.0
1756805820.0910866,-0.2266845703125,247.0
1756805820.0919964,-0.2266845703125,251.0
1756805820.0942845,-0.2266845703125,279.0
1756805820.0960212,-0.2266845703125,317.0
1756805820.0981646,-0.2266845703125,331.0
1756805820.100039,-0.2266845703125,307.0
1756805820.1018403,-0.2266845703125,277.0
1756805820.1040142,-0.2266845703125,274.0
1756805820.1057847,-0.2266845703125,300.0
1756805820.1076374,-0.2266845703125,333.0
1756805820.1103137,-0.2266845703125,352.0
1756805820.114663,-0.2266845703125,359.0
1756805820.1147537,-0.2266845703125,363.0
1756805820.1153603,-0.2266845703125,360.0
1756805820.117357,-0.2266845703125,349.0
1756805820.1194887,-0.2266845703125,347.0
1756805820.1213772,-0.2266845703125,366.0
1756805820.1237376,-0.2266845703125,394.0
1756805820.1256533,-0.2266845703125,404.0
1756805820.127209,-0.2266845703125,387.0
1756805820.1292315,-0.2266845703125,368.0
1756805820.1310894,-0.2266845703125,376.0
1756805820.1344419,-0.2266845703125,407.0
1756805820.1350126,-0.2266845703125,431.0
1756805820.1370652,-0.2266845703125,421.0
1756805820.1389887,-0.2266845703125,385.0
1756805820.1409655,-0.2266845703125,355.0
1756805820.1430006,-0.2266845703125,350.0
1756805820.1433005,-0.2998046875,350.0
1756805820.1451147,-0.2998046875,374.0
1756805820.1468425,-0.2998046875,411.0
1756805820.1488187,-0.2998046875,432.0
1756805820.1508095,-0.2998046875,419.0
1756805820.1527104,-0.2998046875,383.0
1756805820.1548543,-0.2998046875,357.0
1756805820.1567433,-0.2998046875,368.0
1756805820.1586626,-0.2998046875,390.0
1756805820.16079,-0.2998046875,378.0
1756805820.1626096,-0.2998046875,316.0
1756805820.167466,-0.2998046875,250.0
1756805820.167751,-0.2998046875,239.0
1756805820.1685433,-0.2998046875,291.0
1756805820.1709795,-0.2998046875,344.0
1756805820.1725402,-0.2998046875,344.0
1756805820.1745768,-0.2998046875,301.0
1756805820.1764662,-0.2998046875,275.0
1756805820.1785214,-0.2998046875,312.0
1756805820.1804147,-0.2998046875,383.0
1756805820.1826155,-0.2998046875,424.0
1756805820.1844466,-0.2998046875,400.0
1756805820.1863236,-0.2998046875,332.0
1756805820.1882646,-0.2998046875,277.0
1756805820.1910024,-0.47265625,277.0
1756805820.191163,-0.47265625,267.0
1756805820.1924114,-0.47265625,287.0
1756805820.1943681,-0.47265625,298.0
1756805820.196241,-0.47265625,282.0
1756805820.1983035,-0.47265625,252.0
1756805820.2001684,-0.47265625,235.0
1756805820.2106066,-0.47265625,243.0
1756805820.2110534,-0.47265625,255.0
1756805820.211783,-0.47265625,254.0
1756805820.212367,-0.47265625,235.0
1756805820.2124162,-0.47265625,216.0
1756805820.2125223,-0.47265625,215.0
1756805820.2136786,-0.47265625,229.0
1756805820.2162046,-0.47265625,244.0
1756805820.217588,-0.47265625,251.0
1756805820.2196944,-0.47265625,257.0
1756805820.2215865,-0.47265625,266.0
1756805820.2235367,-0.47265625,274.0
1756805820.225489,-0.47265625,272.0
1756805820.2274683,-0.47265625,261.0
1756805820.2302568,-0.47265625,249.0
1756805820.2314544,-0.47265625,241.0
1756805820.2333403,-0.47265625,225.0
1756805820.2352705,-0.47265625,201.0
1756805820.237246,-0.47265625,185.0
1756805820.239572,-0.47265625,196.0
1756805820.2412024,-0.47265625,225.0
1756805820.2431343,-0.47265625,237.0
1756805820.2451441,-0.47265625,206.0
1756805820.2463264,-0.54443359375,206.0
1756805820.2471135,-0.54443359375,155.0
1756805820.2490146,-0.54443359375,133.0
1756805820.2512057,-0.54443359375,155.0
1756805820.25299,-0.54443359375,175.0
1756805820.255125,-0.54443359375,142.0
1756805820.2569337,-0.54443359375,68.0
1756805820.259036,-0.54443359375,29.0
1756805820.2609808,-0.54443359375,68.0
1756805820.2629387,-0.54443359375,141.0
1756805820.2649126,-0.54443359375,168.0
1756805820.266752,-0.54443359375,128.0
1756805820.2688656,-0.54443359375,91.0
1756805820.2709427,-0.54443359375,119.0
1756805820.2752473,-0.54443359375,193.0
1756805820.2757668,-0.54443359375,234.0
1756805820.2780159,-0.54443359375,198.0
1756805820.2787848,-0.54443359375,121.0
1756805820.2810764,-0.54443359375,76.0
1756805820.2828019,-0.54443359375,91.0
1756805820.2856925,-0.54443359375,133.0
1756805820.2879124,-0.54443359375,153.0
1756805820.2890954,-0.54443359375,140.0
1756805820.2903767,-0.54443359375,120.0
1756805820.2925124,-0.54443359375,120.0
1756805820.295659,-0.54443359375,131.0
1756805820.2964962,-0.54443359375,116.0
1756805820.2983649,-0.54443359375,59.0
1756805820.3006752,-0.54443359375,1.0
1756805820.3022528,-0.54443359375,10.0
1756805820.3041093,-0.57666015625,10.0
1756805820.3044565,-0.57666015625,103.0
1756805820.306217,-0.57666015625,209.0
1756805820.3115935,-0.57666015625,236.0
1756805820.3116632,-0.57666015625,179.0
1756805820.3119602,-0.57666015625,124.0
1756805820.3139281,-0.57666015625,146.0
1756805820.3158422,-0.57666015625,216.0
1756805820.3180227,-0.57666015625,237.0
1756805820.3198316,-0.57666015625,155.0
1756805820.321852,-0.57666015625,30.0
1756805820.3237891,-0.57666015625,-45.0
1756805820.3257105,-0.57666015625,-46.0
1756805820.327937,-0.57666015625,-24.0
1756805820.3298335,-0.57666015625,-13.0
1756805820.3318186,-0.57666015625,2.0
1756805820.3338068,-0.57666015625,43.0
1756805820.3356743,-0.57666015625,92.0
1756805820.3377085,-0.57666015625,113.0
1756805820.3410223,-0.57666015625,112.0
1756805820.341738,-0.57666015625,123.0
1756805820.3436828,-0.57666015625,158.0
1756805820.3451707,-0.37158203125,158.0
1756805820.346538,-0.37158203125,174.0
1756805820.3474276,-0.37158203125,136.0
1756805820.3495498,-0.37158203125,75.0
1756805820.3519292,-0.37158203125,55.0
1756805820.3534927,-0.37158203125,89.0
1756805820.3553476,-0.37158203125,118.0
1756805820.357281,-0.37158203125,92.0
1756805820.3593528,-0.37158203125,39.0
1756805820.3612535,-0.37158203125,41.0
1756805820.363461,-0.37158203125,122.0
1756805820.3651319,-0.37158203125,207.0
1756805820.368957,-0.37158203125,200.0
1756805820.3690603,-0.37158203125,107.0
1756805820.3710213,-0.37158203125,19.0
1756805820.3730228,-0.37158203125,4.0
1756805820.3750331,-0.37158203125,30.0
1756805820.3769526,-0.37158203125,21.0
1756805820.3789182,-0.37158203125,-41.0
1756805820.3808832,-0.37158203125,-95.0
1756805820.382748,-0.37158203125,-94.0
1756805820.3846846,-0.37158203125,-69.0
1756805820.386983,-0.37158203125,-80.0
1756805820.3898609,-0.37158203125,-125.0
1756805820.390688,-0.37158203125,-140.0
1756805820.3927603,-0.37158203125,-81.0
1756805820.3935106,-0.458984375,-81.0
1756805820.3953478,-0.458984375,9.0
1756805820.3967113,-0.458984375,47.0
1756805820.3989332,-0.458984375,5.0
1756805820.4004538,-0.458984375,-55.0
1756805820.4026163,-0.458984375,-65.0
1756805820.4045584,-0.458984375,-15.0
1756805820.4064896,-0.458984375,39.0
1756805820.408213,-0.458984375,39.0
1756805820.4102726,-0.458984375,-23.0
1756805820.4121437,-0.458984375,-107.0
1756805820.4142072,-0.458984375,-166.0
1756805820.4163826,-0.458984375,-183.0
1756805820.4261467,-0.458984375,-175.0
1756805820.4263935,-0.458984375,-170.0
1756805820.4281406,-0.458984375,-184.0
1756805820.4282572,-0.458984375,-210.0
1756805820.4284198,-0.458984375,-224.0
1756805820.4288173,-0.458984375,-211.0
1756805820.4298286,-0.458984375,-164.0
1756805820.4320257,-0.458984375,-95.0
1756805820.4339292,-0.458984375,-32.0
1756805820.4358182,-0.458984375,-11.0
1756805820.4389646,-0.458984375,-44.0
1756805820.4398272,-0.458984375,-105.0
1756805820.4418366,-0.458984375,-142.0
1756805820.4438996,-0.458984375,-132.0
1756805820.4459774,-0.58154296875,-132.0
1756805820.4460402,-0.58154296875,-108.0
1756805820.4476247,-0.58154296875,-121.0
1756805820.4497626,-0.58154296875,-182.0
1756805820.4515283,-0.58154296875,-239.0
1756805820.4540517,-0.58154296875,-240.0
1756805820.4555774,-0.58154296875,-184.0
1756805820.4602864,-0.58154296875,-121.0
1756805820.4619508,-0.58154296875,-99.0
1756805820.4619994,-0.58154296875,-119.0
1756805820.463244,-0.58154296875,-148.0
1756805820.465377,-0.58154296875,-164.0
1756805820.4671648,-0.58154296875,-171.0
1756805820.469135,-0.58154296875,-179.0
1756805820.471408,-0.58154296875,-195.0
1756805820.4730685,-0.58154296875,-218.0
1756805820.4752948,-0.58154296875,-246.0
1756805820.4771361,-0.58154296875,-278.0
1756805820.479098,-0.58154296875,-302.0
1756805820.4811087,-0.58154296875,-307.0
1756805820.4830298,-0.58154296875,-298.0
1756805820.4848757,-0.58154296875,-294.0
1756805820.488294,-0.58154296875,-306.0
1756805820.4900966,-0.58154296875,-322.0
1756805820.4912333,-0.58154296875,-323.0
1756805820.4937384,-0.58154296875,-303.0
1756805820.4946933,-0.58154296875,-280.0
1756805820.4967186,-0.58154296875,-272.0
1756805820.4983337,-0.63525390625,-272.0
1756805820.498626,-0.63525390625,-289.0
1756805820.5008893,-0.63525390625,-325.0
1756805820.50255,-0.63525390625,-375.0
1756805820.5045128,-0.63525390625,-431.0
1756805820.5066283,-0.63525390625,-474.0
1756805820.5084713,-0.63525390625,-491.0
1756805820.510471,-0.63525390625,-488.0
1756805820.5123587,-0.63525390625,-490.0
1756805820.514554,-0.63525390625,-506.0
1756805820.5219393,-0.63525390625,-523.0
1756805820.522037,-0.63525390625,-508.0
1756805820.5221035,-0.63525390625,-450.0
1756805820.5222216,-0.63525390625,-376.0
1756805820.525242,-0.63525390625,-337.0
1756805820.5265553,-0.63525390625,-357.0
1756805820.5314968,-0.63525390625,-418.0
1756805820.5317917,-0.63525390625,-467.0
1756805820.5322042,-0.63525390625,-457.0
1756805820.5342329,-0.63525390625,-403.0
1756805820.536111,-0.63525390625,-363.0
1756805820.538111,-0.63525390625,-382.0
1756805820.54011,-0.63525390625,-443.0
1756805820.54213,-0.63525390625,-472.0
1756805820.5439553,-0.63525390625,-416.0
1756805820.5458899,-0.63525390625,-307.0
1756805820.5464191,-0.712890625,-307.0
1756805820.5477862,-0.712890625,-241.0
1756805820.5499687,-0.712890625,-279.0
1756805820.5524614,-0.712890625,-385.0
1756805820.5539882,-0.712890625,-466.0
1756805820.557771,-0.712890625,-465.0
1756805820.557868,-0.712890625,-417.0
1756805820.5595558,-0.712890625,-399.0
1756805820.561819,-0.712890625,-438.0
1756805820.5634947,-0.712890625,-484.0
1756805820.5654378,-0.712890625,-475.0
1756805820.5674412,-0.712890625,-406.0
1756805820.56942,-0.712890625,-339.0
1756805820.5716186,-0.712890625,-334.0
1756805820.5735893,-0.712890625,-369.0
1756805820.575465,-0.712890625,-372.0
