0,1,2
1756805814.80158,0.03375867367732278,-1.0392651904357857
1756805814.8026907,0.03375867367732278,-1.148199340182153
1756805814.804586,0.03375867367732278,-1.1880532974064337
1756805814.8065708,0.03375867367732278,-1.0764622171784477
1756805814.8085363,0.03375867367732278,-0.9117325273180873
1756805814.8105395,0.03375867367732278,-0.8585939176857129
1756805814.8124795,0.03375867367732278,-0.932987971171037
1756805814.814809,0.03375867367732278,-0.9728419283953178
1756805814.8167453,0.03375867367732278,-0.8267107519062884
1756805814.8186312,0.03375867367732278,-0.5716454256708917
1756805814.8206525,0.03375867367732278,-0.42285731870024357
1756805814.822688,0.03375867367732278,-0.47068206736938045
1756805814.8246255,0.03375867367732278,-0.5716454256708917
1756805814.8266642,0.03375867367732278,-0.5450761208547045
1756805814.829346,0.03375867367732278,-0.40425880532891256
1756805814.8306456,0.03375867367732278,-0.32455089088035105
1756805814.8324196,0.03375867367732278,-0.39097415292081894
1756805814.8345635,0.03375867367732278,-0.48928058074071146
1756805814.8364751,0.03375867367732278,-0.44145583207157457
1756805814.8383422,0.03375867367732278,-0.2342152545053147
1756805814.8403,0.03375867367732278,-0.013690024530961244
1756805814.84227,0.03375867367732278,0.10321491666026227
1756805814.8442428,0.03375867367732278,0.16963817870073017
1756805814.8463469,0.03375867367732278,0.31045549422652213
1756805814.8482206,0.03375867367732278,0.5389515156457317
1756805814.8505666,0.03375867367732278,0.7302505103222794
1756805814.8521476,0.03375867367732278,0.762133676101704
1756805814.853971,0.03375867367732278,0.6558564568369553
1756805814.8561263,0.03375867367732278,0.5230099327560195
1756805814.858072,0.03375867367732278,0.46455746216040766
1756805814.8599644,0.03375867367732278,0.4884698364949761
1756805814.8619306,0.03375867367732278,0.5442653766089691
1756805814.8638868,0.03375867367732278,0.5947470557597248
1756805814.8658562,0.03375867367732278,0.6213163605759119
1756805814.867826,0.03375867367732278,0.6106886386494371
1756805814.869835,0.03375867367732278,0.5788054728700125
1756805814.871814,0.03375867367732278,0.5761485423883937
1756805814.873616,0.03375867367732278,0.6478856653920991
1756805814.8757336,0.03375867367732278,0.7674475370649414
1756805814.877709,0.03375867367732278,0.8471554515135029
1756805814.8797245,0.03375867367732278,0.8418415905502654
1756805814.8820484,0.03375867367732278,0.7966737723627473
1756805814.883609,0.03375867367732278,0.7913599113995099
1756805814.8854983,0.03375867367732278,0.8312138686237905
1756805814.8875792,0.03375867367732278,0.8657539648848339
1756805814.889491,0.03375867367732278,0.8657539648848339
1756805814.8914256,0.03375867367732278,0.8710678258480713
1756805814.893286,0.03375867367732278,0.9215495049988269
1756805814.89525,0.03375867367732278,0.9879727670392948
1756805814.8972356,0.03375867367732278,1.0092282108922446
1756805814.8993,0.03375867367732278,0.9640603927047264
1756805814.9012425,0.03375867367732278,0.9295202964436831
1756805814.9033897,0.03375867367732278,0.9667173231863452
1756805814.905098,0.03375867367732278,1.0623668205246188
1756805814.907159,0.03375867367732278,1.1234762216018495
1756805814.909121,0.03375867367732278,1.0836222643775686
1756805814.91112,0.03375867367732278,0.9428049488517767
1756805814.9130514,0.03375867367732278,0.7860460504362724
1756805814.9157443,0.03375867367732278,0.6877396226163799
1756805814.9172485,0.03375867367732278,0.6824257616531425
1756805814.919175,0.03375867367732278,0.7355643712855168
1756805814.9211905,0.03375867367732278,0.7647906065833227
1756805814.92322,0.03375867367732278,0.7089950664693296
1756805814.925112,0.03375867367732278,0.6080317081678184
1756805814.9270835,0.03375867367732278,0.5495792375722066
1756805814.9290416,0.03375867367732278,0.592090125278106
1756805814.9310398,0.03375867367732278,0.6638272482818114
1756805814.9330137,0.03375867367732278,0.6558564568369553
1756805814.9349873,0.03375867367732278,0.5522361680538254
1756805814.9370503,0.03375867367732278,0.43798815734422053
1756805814.938878,0.03375867367732278,0.37687875626699
1756805814.940833,0.03375867367732278,0.3529663819324216
1756805814.9428437,0.03375867367732278,0.28122925892871625
1756805814.9447742,0.03375867367732278,0.16432431773749273
1756805814.9466586,0.03375867367732278,0.0925871947337874
1756805814.9487891,0.03375867367732278,0.12181343003159328
1756805814.9506648,0.03375867367732278,0.21214906640662964
1756805814.9526694,0.03375867367732278,0.2732584674838601
1756805814.9545922,0.03375867367732278,0.2759153979654788
1756805814.9565768,0.03375867367732278,0.2892000503735724
1756805814.9585495,0.03375867367732278,0.3556233124140403
1756805814.9604914,0.03375867367732278,0.4247035049361269
1756805814.962499,0.03375867367732278,0.40876192204641465
1756805814.9644115,0.03375867367732278,0.27857232844709756
1756805814.9664078,0.03375867367732278,0.09790105569702483
1756805814.9688,0.03375867367732278,-0.06948556464495428
1756805814.970308,0.03375867367732278,-0.21030288017074625
1756805814.9724529,0.03375867367732278,-0.34049247377006336
1756805814.974257,0.03375867367732278,-0.48928058074071146
1756805814.976362,0.03375867367732278,-0.7071488802334461
1756805814.9782023,0.03375867367732278,-1.0684914257335916
1756805814.9800618,0.03375867367732278,-1.6051913830205722
1756805814.9820232,0.03375867367732278,-2.2215992547561143
1756805814.984161,0.03375867367732278,-2.739700698671764
1756805814.9858737,0.03375867367732278,-3.0744739393557223
1756805814.987915,0.03375867367732278,-3.3321961960727378
1756805814.9903548,0.03375867367732278,-3.640400131940509
1756805814.9919472,0.03375867367732278,-3.9432902068450426
1756805814.9939878,0.03375867367732278,-4.0309689127384605
1756805814.995833,0.03375867367732278,-3.7838743779479196
1756805814.99774,0.03375867367732278,-3.3321961960727378
1756805815.006322,0.03375867367732278,-2.9124011799769804
1756805815.0072005,0.03375867367732278,-2.5855987307378787
1756805815.007799,0.03375867367732278,-2.197686880421546
1756805815.0083869,0.03375867367732278,-1.6477022707264717
1756805815.009356,0.03375867367732278,-1.0578637038071166
1756805815.009961,0.03375867367732278,-0.6380686877113596
1756805815.0114937,0.03375867367732278,-0.4308281101450997
1756805815.0134468,0.03375867367732278,-0.25812762883988316
1756805815.0155628,0.03375867367732278,0.01287928028522592
1756805815.017941,0.03375867367732278,0.302484702781666
1756805815.0193155,0.03375867367732278,0.4140757830096521
1756805815.0213432,0.03375867367732278,0.2759153979654788
1756805815.0235512,0.03375867367732278,0.010222349803607204
1756805815.0254395,0.03375867367732278,-0.22093060209722112
1756805815.0276992,0.03375867367732278,-0.38566029195758156
1756805815.0291045,0.03375867367732278,-0.5583607732627981
1756805815.0311675,0.03375867367732278,-0.7868567946820076
1756805815.0331888,0.03375867367732278,-1.0339513294725482
1756805815.0350862,0.03375867367732278,-1.2438488375204269
1756805815.0372288,0.03375867367732278,-1.3899800140094563
1756805815.03906,0.03375867367732278,-1.4936003027925862
1756805815.040893,0.03375867367732278,-1.5706512867595288
1756805815.0431068,0.03375867367732278,-1.6237898963919033
1756805815.044918,0.03375867367732278,-1.6503592012080903
1756805815.0470154,0.03375867367732278,-1.674271575542659
1756805815.0491338,0.03375867367732278,-1.7433517680647455
1756805815.0508974,0.03375867367732278,-1.9001106664802496
1756805815.053062,0.03375867367732278,-2.1578329231972653
1756805815.0548346,0.03375867367732278,-2.439467554248849
1756805815.057337,0.03375867367732278,-2.6440512013334905
1756805815.0594397,0.03375867367732278,-2.752985351079858
1756805815.0607207,0.03375867367732278,-2.814094752157088
1756805815.062826,0.03375867367732278,-2.9044303885321243
1756805815.0646603,0.03375867367732278,-2.981481372499067
1756805815.0665674,0.03375867367732278,-2.9442843457564054
1756805815.0690112,0.03375867367732278,-2.7901823778225197
1756805815.070372,0.03375867367732278,-2.662649714704821
1756805815.0727415,0.03375867367732278,-2.694532880484246
1756805815.0745096,0.03375867367732278,-2.8406640569732753
1756805815.0765896,0.03375867367732278,-2.9203719714218366
1756805815.0786502,0.03375867367732278,-2.8486348484181314
1756805815.0806522,0.03375867367732278,-2.758299212043095
1756805815.0824044,0.03375867367732278,-2.8566056398629875
1756805815.0843298,0.03375867367732278,-3.1541818538042836
1756805815.0865622,0.03375867367732278,-3.406590249558062
1756805815.088235,0.03375867367732278,-3.3853348057051122
1756805815.0902896,0.03375867367732278,-3.114327896580003
1756805815.0932975,0.03375867367732278,-2.861919500826225
1756805815.0960605,0.03375867367732278,-2.827379404565182
1756805815.0977027,0.03375867367732278,-2.9602259286461177
1756805815.098613,0.03375867367732278,-3.0452477040579162
1756805815.1000807,0.03375867367732278,-2.9495982067196427
1756805815.1018157,0.03375867367732278,-2.76892693396957
1756805815.106395,0.03375867367732278,-2.6971898109658645
1756805815.1070018,0.03375867367732278,-2.822065543601944
1756805815.1079235,0.03375867367732278,-3.0452477040579162
1756805815.1099896,0.03375867367732278,-3.196692741510183
1756805815.112033,0.03375867367732278,-3.202006602473421
1756805815.11332,0.03375867367732278,-3.1462110623594275
1756805815.115229,0.03375867367732278,-3.151524923322665
1756805815.1172242,0.03375867367732278,-3.2471744206609388
1756805815.1193182,0.03375867367732278,-3.329539265591119
1756805815.1211867,0.03375867367732278,-3.294999169330076
1756805815.123139,0.03375867367732278,-3.1621526452491397
1756805815.1251104,0.03375867367732278,-3.042590773576298
1756805815.1269605,0.03375867367732278,-3.0160214687601106
1756805815.129047,0.03375867367732278,-3.03727691261306
1756805815.1310384,0.03375867367732278,-3.031963051649823
1756805815.1330156,0.03375867367732278,-3.0133645382784917
1756805815.134937,0.03375867367732278,-3.05853235646601
1756805815.1369371,0.03375867367732278,-3.1754372976572336
1756805815.1389334,0.03375867367732278,-3.2445174901793203
1756805815.1408343,0.03375867367732278,-3.116984827061622
1756805815.1428337,0.03375867367732278,-2.8645764313078437
1756805815.1448033,0.03375867367732278,-2.713131393855577
1756805815.1467304,0.03375867367732278,-2.8008100997489946
1756805815.1487322,0.03375867367732278,-3.0053937468336356
1756805815.1507063,0.03375867367732278,-3.053218495502773
1756805815.1526425,0.03375867367732278,-2.8566056398629875
1756805815.1546304,0.03375867367732278,-2.6121680355540655
1756805815.1566012,0.03375867367732278,-2.5776279392930226
1756805815.1585758,0.03375867367732278,-2.8008100997489946
1756805815.160494,0.03375867367732278,-3.061189286947629
1756805815.1625106,0.03375867367732278,-3.1196417575432407
1756805815.164418,0.03375867367732278,-2.9442843457564054
1756805815.1664174,0.03375867367732278,-2.7157883243371956
1756805815.1683917,0.03375867367732278,-2.6254526879621594
1756805815.1703165,0.03375867367732278,-2.6971898109658645
1756805815.1722882,0.03375867367732278,-2.803467030230613
1756805815.1742892,0.03375867367732278,-2.8194086131203258
1756805815.1761966,0.03375867367732278,-2.74767149011662
1756805815.1780868,0.03375867367732278,-2.7078175328923395
1756805815.1802506,0.03375867367732278,-2.795496238785757
1756805815.182124,0.03375867367732278,-2.9974229553887795
1756805815.1841133,0.03375867367732278,-3.1860650195837086
1756805815.1860723,0.03375867367732278,-3.2471744206609388
1756805815.1881802,0.03375867367732278,-3.1594957147675213
1756805815.1900103,0.03375867367732278,-3.0053937468336356
1756805815.1919851,0.03375867367732278,-2.891145736124031
1756805815.1939085,0.03375867367732278,-2.8672333617894625
1756805815.1958766,0.03375867367732278,-2.8858318751607936
1756805815.197892,0.03375867367732278,-2.835350196010038
1756805815.1998076,0.03375867367732278,-2.6281096184437778
1756805815.201816,0.03375867367732278,-2.3517888483554317
1756805815.203789,0.03375867367732278,-2.1844022280134525
1756805815.206442,0.03375867367732278,-2.2428546986090643
1756805815.2076986,0.03375867367732278,-2.428839832322374
1756805815.2097876,0.03375867367732278,-2.5324601211055042
1756805815.2116072,0.03375867367732278,-2.450095276175324
1756805815.2135985,0.03375867367732278,-2.301307169204676
1756805815.2155387,0.03375867367732278,-2.274737864388489
1756805815.217492,0.03375867367732278,-2.3889858750980935
1756805815.219555,0.03375867367732278,-2.5005769553260797
1756805815.2213197,0.9911828278147558,-2.5005769553260797
1756805815.221435,0.9911828278147558,-2.487292302917986
1756805815.2233877,0.9911828278147558,-2.3969566665429496
1756805815.2253606,0.9911828278147558,-2.359759639800288
1756805815.227209,0.9911828278147558,-2.4155551799142807
1756805815.2293105,0.9911828278147558,-2.503233885807698
1756805815.2313373,0.9911828278147558,-2.527146260142267
1756805815.2332263,0.9911828278147558,-2.487292302917986
1756805815.2350452,0.9911828278147558,-2.439467554248849
1756805815.2370403,0.9911828278147558,-2.4368106237672302
1756805815.239017,0.9911828278147558,-2.4819784419547486
1756805815.2410238,0.9911828278147558,-2.535117051587123
1756805815.2429824,0.9911828278147558,-2.5510586344768353
1756805815.2449265,0.9911828278147558,-2.519175468697411
1756805815.2469115,0.9911828278147558,-2.497920024844461
1756805815.2488272,0.9911828278147558,-2.5590294259216915
1756805815.2508528,0.9911828278147558,-2.6918759500026272
1756805815.2527618,0.9911828278147558,-2.7848685168592824
1756805815.2548804,0.9911828278147558,-2.752985351079858
1756805815.2568486,0.9911828278147558,-2.6493650622967277
1756805815.2587428,0.9911828278147558,-2.6148249660356844
1756805815.2608557,0.9911828278147558,-2.7025036719291022
1756805815.262006,0.5399068184041278,-2.7025036719291022
1756805815.2626653,0.5399068184041278,-2.795496238785757
1756805815.264608,0.5399068184041278,-2.7795546558960447
1756805815.2666714,0.5399068184041278,-2.6865620890393895
1756805815.2685769,0.5399068184041278,-2.6307665489253966
1756805815.2705953,0.5399068184041278,-2.657335853741584
1756805815.2725194,0.5399068184041278,-2.6892190195210084
1756805815.274539,0.5399068184041278,-2.6413942708518716
1756805815.2764592,0.5399068184041278,-2.5670002173665476
1756805815.2783706,0.5399068184041278,-2.5510586344768353
1756805815.2805457,0.5399068184041278,-2.569657147848166
1756805815.2823768,0.5399068184041278,-2.5324601211055042
1756805815.2844765,0.5399068184041278,-2.431496762803993
1756805815.2863345,0.5399068184041278,-2.3438180569105755
1756805815.2884412,0.5399068184041278,-2.327876474020863
1756805815.290256,0.5399068184041278,-2.3252195435392444
1756805815.292555,0.5399068184041278,-2.2401977681274454
1756805815.294163,0.5399068184041278,-2.0860958001935597
1756805815.296321,0.5399068184041278,-1.9479354151493866
1756805815.298128,0.5399068184041278,-1.8629136397375876
1756805815.300315,0.5399068184041278,-1.7672641423993138
1756805815.3023474,0.5399068184041278,-1.597220591575716
1756805815.3038385,0.5399068184041278,-1.4192062493072621
1756805815.305822,0.5399068184041278,-1.3607537787116504
1756805815.30671,0.24110596661057776,-1.3607537787116504
1756805815.307947,0.24110596661057776,-1.4218631797888808
1756805815.3099182,0.24110596661057776,-1.4457755541234492
1756805815.3118114,0.24110596661057776,-1.2916735861895636
1756805815.3138442,0.24110596661057776,-0.9887835112850301
1756805815.3158288,0.24110596661057776,-0.7310612545680145
1756805815.3177493,0.24110596661057776,-0.6726087839724029
1756805815.3197415,0.24110596661057776,-0.7629444203474391
1756805815.3217115,0.24110596661057776,-0.8081122385349574
1756805815.323636,0.24110596661057776,-0.6513533401194531
1756805815.3256075,0.24110596661057776,-0.3272078213619698
1756805815.327608,0.24110596661057776,-0.03494546838391097
1756805815.3294888,0.24110596661057776,0.0261639326933195
1756805815.3315334,0.24110596661057776,-0.1545073400567532
1756805815.3341568,0.24110596661057776,-0.39097415292081894
1756805815.3354137,0.24110596661057776,-0.4786528588142366
1756805815.337387,0.24110596661057776,-0.36174791762301306
1756805815.3394058,0.24110596661057776,-0.19170436679941524
1756805815.3413925,0.24110596661057776,-0.13325189620380348
1756805815.3432565,0.24110596661057776,-0.1863905058361778
1756805815.3434978,0.06225907154628539,-0.1863905058361778
1756805815.3453012,0.06225907154628539,-0.1996751582442714
1756805815.347253,0.06225907154628539,-0.048230120792004554
1756805815.3491597,0.06225907154628539,0.2254337188147232
1756805815.3512,0.06225907154628539,0.4592436011971702
1756805815.35313,0.06225907154628539,0.554893098535444
1756805815.3550715,0.06225907154628539,0.5655208204619189
1756805815.3570943,0.06225907154628539,0.5974039862413435
1756805815.3590152,0.06225907154628539,0.6638272482818114
1756805815.3610182,0.06225907154628539,0.6691411092450489
1756805815.3630106,0.06225907154628539,0.5469223070905879
1756805815.3650312,0.06225907154628539,0.37422182578537133
1756805815.3668833,0.06225907154628539,0.29982777230004726
1756805815.368854,0.06225907154628539,0.37953568674860877
1756805815.3708377,0.06225907154628539,0.5283237937192569
1756805815.372779,0.06225907154628539,0.6213163605759119
1756805815.374733,0.06225907154628539,0.6425718044288616
1756805815.376735,0.06225907154628539,0.6558564568369553
1756805815.3787217,0.06225907154628539,0.7010242750244735
1756805815.380695,0.06225907154628539,0.7355643712855168
1756805815.3826368,0.06225907154628539,0.7196227883958045
1756805815.384561,0.06225907154628539,0.6850826921347613
1756805815.386576,0.06225907154628539,0.6797688311715236
1756805815.3884592,0.06225907154628539,0.6691411092450489
1756805815.3904994,0.06225907154628539,0.5841193338332499
1756805815.392474,0.06225907154628539,0.43798815734422053
1756805815.3938174,-0.12108166218614218,0.43798815734422053
1756805815.3943465,-0.12108166218614218,0.34765252096918414
1756805815.3971813,-0.12108166218614218,0.4167327134912708
1756805815.3982954,-0.12108166218614218,0.5788054728700125
1756805815.4002728,-0.12108166218614218,0.677111900689905
1756805815.4022574,-0.12108166218614218,0.6425718044288616
1756805815.4042308,-0.12108166218614218,0.5602069594986815
1756805815.4061906,-0.12108166218614218,0.5522361680538254
1756805815.4083874,-0.12108166218614218,0.6213163605759119
1756805815.410163,-0.12108166218614218,0.6744549702082863
1756805815.4120522,-0.12108166218614218,0.6505425958737178
1756805815.4140868,-0.12108166218614218,0.5708346814251564
1756805815.4160442,-0.12108166218614218,0.5070683498663071
1756805815.4180105,-0.12108166218614218,0.49378369745821354
1756805815.4199424,-0.12108166218614218,0.5256668632376381
1756805815.4219167,-0.12108166218614218,0.5814624033516312
1756805815.42391,-0.12108166218614218,0.6319440825023868
1756805815.4259038,-0.12108166218614218,0.6319440825023868
1756805815.427941,-0.12108166218614218,0.5655208204619189
1756805815.4298058,-0.12108166218614218,0.4672143926420264
1756805815.4317777,-0.12108166218614218,0.4034480610831772
1756805815.4337516,-0.12108166218614218,0.4140757830096521
1756805815.435676,-0.12108166218614218,0.47252825360526385
1756805815.437692,-0.12108166218614218,0.5150391413111632
1756805815.4396071,-0.12108166218614218,0.4884698364949761
1756805815.441076,-0.23744843190837958,0.4884698364949761
1756805815.441557,-0.23744843190837958,0.3981342001199398
1756805815.4435728,-0.23744843190837958,0.29717084181842857
1756805815.44551,-0.23744843190837958,0.26528767603900394
1756805815.4474535,-0.23744843190837958,0.3423386600059467
1756805815.449391,-0.23744843190837958,0.49112676697659485
1756805815.4514074,-0.23744843190837958,0.5974039862413435
1756805815.4533968,-0.23744843190837958,0.5628638899803001
1756805815.4553287,-0.23744843190837958,0.40876192204641465
1756805815.4572997,-0.23744843190837958,0.2706015370022414
1756805815.459306,-0.23744843190837958,0.24934609314929165
1756805815.4612188,-0.23744843190837958,0.31045549422652213
1756805815.463237,-0.23744843190837958,0.3423386600059467
1756805815.4651716,-0.23744843190837958,0.2732584674838601
1756805815.467165,-0.23744843190837958,0.143068873884543
1756805815.4690962,-0.23744843190837958,0.03679165461979437
1756805815.4710865,-0.23744843190837958,-0.008376163567723811
1756805815.4730585,-0.23744843190837958,-0.011033094049342527
1756805815.475029,-0.23744843190837958,-0.005719233086105094
1756805815.476953,-0.23744843190837958,-0.026974676939054823
1756805815.4789665,-0.23744843190837958,-0.08277021705304786
1756805815.480887,-0.23744843190837958,-0.17044892294646552
1756805815.4829211,-0.23744843190837958,-0.250156837395027
1756805815.48485,-0.23744843190837958,-0.27672614221121417
1756805815.486795,-0.23744843190837958,-0.23952911546855213
1756805815.4887023,-0.23744843190837958,-0.1837335753545591
1756805815.490707,-0.23744843190837958,-0.1863905058361778
1756805815.4927025,-0.23744843190837958,-0.25812762883988316
1756805815.4936578,-0.4026955520559471,-0.25812762883988316
1756805815.494671,-0.4026955520559471,-0.3378355432884446
1756805815.49657,-0.4026955520559471,-0.35909098714139437
1756805815.4986324,-0.4026955520559471,-0.3272078213619698
1756805815.5005722,-0.4026955520559471,-0.3032954470274013
1756805815.502513,-0.4026955520559471,-0.34314940425168206
1756805815.5044682,-0.4026955520559471,-0.41754345773700613
1756805815.5064764,-0.4026955520559471,-0.47068206736938045
1756805815.50845,-0.4026955520559471,-0.46802513688776176
1756805815.510411,-0.4026955520559471,-0.43348504062671844
1756805815.5124266,-0.4026955520559471,-0.3989449443656751
1756805815.5143075,-0.4026955520559471,-0.38831722243920025
1756805815.516313,-0.4026955520559471,-0.4016018748472938
1756805815.518185,-0.4026955520559471,-0.43614197110833713
1756805815.5201926,-0.4026955520559471,-0.47068206736938045
1756805815.522225,-0.4026955520559471,-0.4759959283326179
1756805815.524156,-0.4026955520559471,-0.42285731870024357
1756805815.5261452,-0.4026955520559471,-0.3272078213619698
1756805815.5280626,-0.4026955520559471,-0.25812762883988316
1756805815.53001,-0.4026955520559471,-0.2740692117295955
1756805815.532025,-0.4026955520559471,-0.35377712617815693
1756805815.5339985,-0.4026955520559471,-0.42551424918186226
1756805815.5358863,-0.4026955520559471,-0.45474048447966814
1756805815.5379367,-0.4026955520559471,-0.4786528588142366
1756805815.539848,-0.4026955520559471,-0.5530469122995606
1756805815.5417209,-0.5988476679563038,-0.5530469122995606
1756805815.5418332,-0.5988476679563038,-0.6726087839724029
1756805815.5438194,-0.5988476679563038,-0.7470028374577269
1756805815.545813,-0.5988476679563038,-0.6938642278253525
1756805815.5477283,-0.5988476679563038,-0.5397622598914671
1756805815.549684,-0.5988476679563038,-0.41754345773700613
1756805815.5516863,-0.5988476679563038,-0.428171179663481
1756805815.5536106,-0.5988476679563038,-0.5397622598914671
1756805815.555585,-0.5988476679563038,-0.6114993828951724
1756805815.5574863,-0.5988476679563038,-0.5397622598914671
1756805815.5594442,-0.5988476679563038,-0.3564340566597757
1756805815.5614767,-0.5988476679563038,-0.21030288017074625
1756805815.5634582,-0.5988476679563038,-0.21295981065236497
1756805815.565407,-0.5988476679563038,-0.36971870906786924
1756805815.5673668,-0.5988476679563038,-0.5716454256708917
1756805815.5693605,-0.5988476679563038,-0.7044919497518274
1756805815.571491,-0.5988476679563038,-0.7337181850496333
1756805815.573309,-0.5988476679563038,-0.7204335326415398
1756805815.575282,-0.5988476679563038,-0.7496597679393456
1756805815.5772316,-0.5988476679563038,-0.8346815433511445
1756805815.5791774,-0.5988476679563038,-0.914389457799706
1756805815.58753,-0.5988476679563038,-0.9223602492445622
1756805815.5878654,-0.5988476679563038,-0.8692216396121878
1756805815.5901322,-0.5988476679563038,-0.8081122385349574
1756805815.590367,-0.5988476679563038,-0.7496597679393456
1756805815.590564,-0.5988476679563038,-0.6593241315643094
1756805815.5909522,-0.5988476679563038,-0.5344483989282296
1756805815.5934093,-0.5988476679563038,-0.45208355399804945
1756805815.5950894,-0.5988476679563038,-0.4972513721855676
1756805815.5970592,-0.5988476679563038,-0.6274409657848847
1756805815.598369,-0.8467183481776551,-0.6274409657848847
1756805815.5989623,-0.8467183481776551,-0.6858934363804964
1756805815.6009188,-0.8467183481776551,-0.5663315647076542
1756805815.6037414,-0.8467183481776551,-0.36174791762301306
1756805815.604944,-0.8467183481776551,-0.2660984202847393
1756805815.606952,-0.8467183481776551,-0.38831722243920025
1756805815.6105945,-0.8467183481776551,-0.6274409657848847
1756805815.611959,-0.8467183481776551,-0.754973628902583
1756805815.61245,-0.8467183481776551,-0.661981062045928
1756805815.6147628,-0.8467183481776551,-0.4387989015899559
1756805815.6174383,-0.8467183481776551,-0.27672614221121417
1756805815.6183546,-0.8467183481776551,-0.27672614221121417
1756805815.6203268,-0.8467183481776551,-0.3564340566597757
1756805815.622302,-0.8467183481776551,-0.37237563954948794
1756805815.6243627,-0.8467183481776551,-0.27938307269283286
1756805815.6282022,-0.8467183481776551,-0.16513506198322808
1756805815.6284256,-0.8467183481776551,-0.13325189620380348
1756805815.630304,-0.8467183481776551,-0.2049890192075088
1756805815.6322162,-0.8467183481776551,-0.3112662384722575
1756805815.6346252,-0.8467183481776551,-0.3936310834024377
1756805815.6360354,-0.8467183481776551,-0.4627112759245243
1756805815.6389396,-0.8467183481776551,-0.5291345379649922
1756805815.6401129,-0.8467183481776551,-0.5610177037444168
1756805815.6420674,-0.8467183481776551,-0.5158498855568986
1756805815.6452324,-0.8467183481776551,-0.446769693034812
1756805815.6459453,-0.8467183481776551,-0.4387989015899559
1756805815.6479814,-0.8467183481776551,-0.5025652331488051
1756805815.6490078,-1.068729746238509,-0.5025652331488051
1756805815.65105,-1.068729746238509,-0.5424191903730858
1756805815.6573594,-1.068729746238509,-0.465368206406143
1756805815.6735916,-1.068729746238509,-0.3165800994354949
1756805815.675615,-1.068729746238509,-0.231558324023696
1756805815.67582,-1.068729746238509,-0.26875535076635804
1756805815.676474,-1.068729746238509,-0.35112019569653824
1756805815.6766748,-1.068729746238509,-0.38831722243920025
1756805815.6768708,-1.068729746238509,-0.3750325700311067
1756805815.67723,-1.068729746238509,-0.3776895005127254
1756805815.677467,-1.068729746238509,-0.3962880138840564
1756805815.6777008,-1.068729746238509,-0.3830033614759628
1756805815.679708,-1.068729746238509,-0.3192370299171136
1756805815.6800065,-1.068729746238509,-0.2714122812479767
1756805815.6802237,-1.068729746238509,-0.28735386413768904
1756805815.6804214,-1.068729746238509,-0.3325216823252072
1756805815.680801,-1.068729746238509,-0.3139231689538762
1756805815.687226,-1.068729746238509,-0.2182736716156024
1756805815.6874604,-1.068729746238509,-0.13856575716704092
1756805815.6876566,-1.068729746238509,-0.16247813150160936
1756805815.6879668,-1.068729746238509,-0.24218604595017085
1756805815.6895878,-1.068729746238509,-0.26875535076635804
1756805815.6912096,-1.068729746238509,-0.19170436679941524
1756805815.6931052,-1.068729746238509,-0.09339793897952274
1756805815.6956832,-1.2276697243957115,-0.09339793897952274
1756805815.6993327,-1.2276697243957115,-0.09871179994276018
1756805815.7219565,-1.2276697243957115,-0.2342152545053147
1756805815.7237787,-1.2276697243957115,-0.3936310834024377
1756805815.7240286,-1.2276697243957115,-0.4573974149612869
1756805815.7242315,-1.2276697243957115,-0.43348504062671844
1756805815.72443,-1.2276697243957115,-0.428171179663481
1756805815.7246442,-1.2276697243957115,-0.5025652331488051
1756805815.724846,-1.2276697243957115,-0.5796162171157478
1756805815.7250412,-1.2276697243957115,-0.5397622598914671
1756805815.7252376,-1.2276697243957115,-0.3803464309943441
1756805815.7254329,-1.2276697243957115,-0.23952911546855213
1756805815.7256286,-1.2276697243957115,-0.22624446306045856
1756805815.725824,-1.2276697243957115,-0.30860930799063874
1756805815.7266366,-1.2276697243957115,-0.39097415292081894
1756805815.7294023,-1.2276697243957115,-0.44145583207157457
1756805815.7300038,-1.2276697243957115,-0.5450761208547045
1756805815.730643,-1.2276697243957115,-0.7284043240863959
1756805815.7309842,-1.2276697243957115,-0.8957909444283749
1756805815.731401,-1.2276697243957115,-0.9170463882813247
1756805815.7391248,-1.2276697243957115,-0.829367682387907
1756805815.7393727,-1.2276697243957115,-0.7682582813106766
1756805815.7395723,-1.2276697243957115,-0.8213968909430509
1756805815.739768,-1.2276697243957115,-0.8718785700938065
1756805815.744956,-1.2276697243957115,-0.736375115531252
1756805815.7452767,-1.2276697243957115,-0.4308281101450997
1756805815.745474,-1.2276697243957115,-0.1996751582442714
1756805815.746143,-1.2276697243957115,-0.24749990691340829
1756805815.7482646,-1.2276697243957115,-0.5052221636304237
1756805815.750058,-1.2276697243957115,-0.6938642278253525
1756805815.7520256,-1.2276697243957115,-0.6354117572297409
1756805815.7540429,-1.2276697243957115,-0.45208355399804945
1756805815.7555654,-1.2995711430858743,-0.45208355399804945
1756805815.7559693,-1.2995711430858743,-0.4122295967737687
1756805815.7580204,-1.2995711430858743,-0.6035285914503162
1756805815.7615733,-1.2995711430858743,-0.8320246128695258
1756805815.762796,-1.2995711430858743,-0.829367682387907
1756805815.7638428,-1.2995711430858743,-0.5636746342260355
1756805815.76694,-1.2995711430858743,-0.28735386413768904
1756805815.7680702,-1.2995711430858743,-0.2368721849869334
1756805815.7698998,-1.2995711430858743,-0.40691573581053125
1756805815.7718546,-1.2995711430858743,-0.5743023561525104
1756805815.7740257,-1.2995711430858743,-0.550389981817942
1756805815.7770844,-1.2995711430858743,-0.3750325700311067
1756805815.7778742,-1.2995711430858743,-0.22093060209722112
1756805815.7798178,-1.2995711430858743,-0.20764594968912753
1756805815.7850182,-1.2995711430858743,-0.3006385165457826
1756805815.786188,-1.2995711430858743,-0.39097415292081894
1756805815.7869737,-1.2995711430858743,-0.3962880138840564
1756805815.7874124,-1.2995711430858743,-0.25812762883988316
1756805815.7932038,-1.2995711430858743,0.004908488840369771
1756805815.7937758,-1.292002572697436,0.004908488840369771
1756805815.79855,-1.292002572697436,0.2892000503735724
1756805815.798761,-1.292002572697436,0.4140757830096521
1756805815.7989562,-1.292002572697436,0.28388618941033494
1756805815.7992013,-1.292002572697436,0.023507002211700784
1756805815.8031652,-1.292002572697436,-0.10933952186923504
1756805815.803369,-1.292002572697436,0.0261639326933195
1756805815.803563,-1.292002572697436,0.2865431198919537
1756805815.810016,-1.292002572697436,0.4353312268626018
1756805815.8102567,-1.292002572697436,0.37687875626699
1756805815.8104522,-1.292002572697436,0.25200302363091037
1756805815.8113265,-1.292002572697436,0.2360614407411981
1756805815.8130164,-1.292002572697436,0.31842628567137826
1756805815.8153548,-1.292002572697436,0.3689079648221339
1756805815.8201346,-1.292002572697436,0.3503094514508029
1756805815.8203983,-1.292002572697436,0.3556233124140403
1756805815.8208156,-1.292002572697436,0.46455746216040766
1756805815.82287,-1.292002572697436,0.5708346814251564
1756805815.8248105,-1.292002572697436,0.49378369745821354
1756805815.826815,-1.292002572697436,0.23340451025957937
1756805815.828824,-1.292002572697436,0.0261639326933195
1756805815.8306603,-1.292002572697436,0.12447036051321199
1756805815.8326929,-1.292002572697436,0.4964406279398323
1756805815.8348014,-1.292002572697436,0.8312138686237905
1756805815.8366935,-1.292002572697436,0.8604401039215964
1756805815.8386471,-1.292002572697436,0.6266302215391494
1756805815.8405194,-1.292002572697436,0.4140757830096521
1756805815.8425353,-1.292002572697436,0.4353312268626018
1756805815.8446918,-1.292002572697436,0.6213163605759119
1756805815.8456602,-1.2251468675995654,0.6213163605759119
1756805815.8465142,-1.2251468675995654,0.7355643712855168
1756805815.848626,-1.2251468675995654,0.6691411092450489
1756805815.8511229,-1.2251468675995654,0.5150391413111632
1756805815.8550577,-1.2251468675995654,0.41141885252803334
1756805815.8554463,-1.2251468675995654,0.39016340867508364
1756805815.8563042,-1.2251468675995654,0.3981342001199398
1756805815.861452,-1.2251468675995654,0.4220465744545082
1756805815.8875277,-1.2251468675995654,0.5150391413111632
1756805815.8890948,-1.2251468675995654,0.6691411092450489
1756805815.889701,-1.2251468675995654,0.7515059541752291
1756805815.889956,-1.2251468675995654,0.6558564568369553
1756805815.8901942,-1.2251468675995654,0.44330201830745797
1756805815.890443,-1.2251468675995654,0.2865431198919537
1756805815.8907504,-1.2251468675995654,0.28122925892871625
1756805815.8909993,-1.2251468675995654,0.32905400759785314
1756805815.8939292,-1.1324318803411975,0.32905400759785314
1756805815.8951018,-1.1324318803411975,0.28388618941033494
1756805815.8976512,-1.1324318803411975,0.1297842214764494
1756805815.8981576,-1.1324318803411975,0.004908488840369771
1756805815.8986125,-1.1324318803411975,0.04741937654626923
1756805815.899064,-1.1324318803411975,0.2254337188147232
1756805815.8994236,-1.1324318803411975,0.41141885252803334
1756805815.8996222,-1.1324318803411975,0.49378369745821354
1756805815.899817,-1.1324318803411975,0.47252825360526385
1756805815.9000118,-1.1324318803411975,0.4406450878258392
1756805815.9002066,-1.1324318803411975,0.45658667071555153
1756805815.9004018,-1.1324318803411975,0.5044114193846884
1756805815.9005957,-1.1324318803411975,0.49112676697659485
1756805815.9007888,-1.1324318803411975,0.37422182578537133
1756805815.9014015,-1.1324318803411975,0.1908936225536799
1756805815.9033852,-1.1324318803411975,0.03147779365655693
1756805815.9079173,-1.1324318803411975,-0.08011328657142915
1756805815.910705,-1.1324318803411975,-0.22093060209722112
1756805815.910954,-1.1324318803411975,-0.483966719777474
1756805815.9112928,-1.1324318803411975,-0.8612508481673317
1756805815.913407,-1.1324318803411975,-1.2837027947447075
1756805815.9177938,-1.1324318803411975,-1.6955270193956087
1756805815.9181335,-1.1324318803411975,-2.1179789659729846
1756805815.9191508,-1.1324318803411975,-2.5537155649584538
1756805815.921121,-1.1324318803411975,-2.9363135543115493
1756805815.9231782,-1.1324318803411975,-3.1727803671756147
1756805815.9251533,-1.1324318803411975,-3.2471744206609388
1756805815.927201,-1.1324318803411975,-3.2471744206609388
1756805815.929018,-1.1324318803411975,-3.209977393918277
1756805815.9357083,-1.1324318803411975,-3.0452477040579162
1756805815.936205,-1.1324318803411975,-2.6281096184437778
1756805815.937611,-1.1324318803411975,-1.9665339285207177
1756805815.9378226,-1.1324318803411975,-1.2491626984836643
1756805815.938768,-1.1324318803411975,-0.6752657144540216
1756805815.9409108,-1.1324318803411975,-0.2820400031744516
1756805815.941532,-1.0510697486654867,-0.2820400031744516
1756805815.94271,-1.0510697486654867,0.06601788991760024
1756805815.9447365,-1.0510697486654867,0.48049904505012
1756805815.9467149,-1.0510697486654867,0.9295202964436831
1756805815.9486587,-1.0510697486654867,1.2536658152011664
1756805815.950664,-1.0510697486654867,1.341344521094584
1756805815.961982,-1.0510697486654867,1.2217826494217419
1756805815.964157,-1.0510697486654867,1.0464252376349066
1756805815.9897947,-1.0510697486654867,0.9374910878885393
1756805815.9981806,-1.0409783214809023,0.9374910878885393
1756805816.0166385,-1.0409783214809023,0.9056079221091147
1756805816.017945,-1.0409783214809023,0.9029509916274959
1756805816.018352,-1.0409783214809023,0.9002940611458772
1756805816.0195832,-1.0409783214809023,0.9082648525907334
1756805816.0198083,-1.0409783214809023,0.9428049488517767
1756805816.0203502,-1.0409783214809023,0.9879727670392948
1756805816.020556,-1.0409783214809023,1.0092282108922446
1756805816.020762,-1.0409783214809023,1.006571280410626
1756805816.0209565,-1.0409783214809023,1.0278267242635757
1756805816.021207,-1.0409783214809023,1.088936125340806
1756805816.0214157,-1.0409783214809023,1.1314470130467056
1756805816.022864,-1.0409783214809023,1.0623668205246188
1756805816.0234797,-1.0409783214809023,0.8816955477745462
1756805816.023696,-1.0409783214809023,0.6903965530979986
1756805816.0239043,-1.0409783214809023,0.6053747776861996
1756805816.0275922,-1.0409783214809023,0.6505425958737178
1756805816.0356023,-1.0409783214809023,0.7488490236936104
1756805816.035879,-1.0409783214809023,0.817929216215697
1756805816.0365615,-1.0409783214809023,0.8577831734399778
1756805816.036769,-1.0409783214809023,0.9295202964436831
1756805816.0370214,-1.0409783214809023,1.0783084034143313
1756805816.0372157,-1.0409783214809023,1.2642935371276414
1756805816.0374243,-1.0409783214809023,1.3865123392821024
1756805816.037619,-1.0409783214809023,1.3758846173556274
1756805816.0378292,-1.0409783214809023,1.2350673018298355
1756805816.0391126,-1.0409783214809023,1.0676806814878563
1756805816.0395894,-1.0409783214809023,0.9720311841495826
1756805816.0399268,-1.0409783214809023,0.9773450451128199
1756805816.040375,-1.0409783214809023,1.0278267242635757
1756805816.0405717,-1.0409783214809023,1.033140585226813
1756805816.0408015,-1.0409783214809023,0.9720311841495826
1756805816.041002,-1.0409783214809023,0.9082648525907334
1756805816.0411973,-1.0409783214809023,0.9162356440355895
1756805816.0413926,-1.0409783214809023,0.9853158365576762
1756805816.0415947,-1.0409783214809023,1.0225128633003382
1756805816.041806,-1.0409783214809023,0.9614034622231077
1756805816.0421288,-1.0409783214809023,0.8312138686237905
1756805816.0426753,-1.0409783214809023,0.7169658579141858
1756805816.0433538,-1.0409783214809023,0.6638272482818114
1756805816.043568,-1.0409783214809023,0.6531995263553365
1756805816.0437636,-1.0409783214809023,0.6425718044288616
1756805816.043969,-1.0409783214809023,0.6266302215391494
1756805816.0444393,-1.0409783214809023,0.6213163605759119
1756805816.044636,-1.0409783214809023,0.6505425958737178
1756805816.044914,-1.0409783214809023,0.7063381359877109
1756805816.0470457,-1.0409783214809023,0.7647906065833227
1756805816.0484054,-1.0630533184471804,0.7647906065833227
1756805816.048814,-1.0630533184471804,0.817929216215697
1756805816.0507874,-1.0630533184471804,0.8577831734399778
1756805816.0567555,-1.0630533184471804,0.8896663392194023
1756805816.0579894,-1.0630533184471804,0.8976371306642585
1756805816.0582228,-1.0630533184471804,0.8604401039215964
1756805816.0586593,-1.0630533184471804,0.7727613980281789
1756805816.060751,-1.0630533184471804,0.6824257616531425
1756805816.0706904,-1.0630533184471804,0.6505425958737178
1756805816.071147,-1.0630533184471804,0.7089950664693296
1756805816.071361,-1.0630533184471804,0.799330702844366
1756805816.0715582,-1.0630533184471804,0.817929216215697
1756805816.0717642,-1.0630533184471804,0.7382213017671355
1756805816.072502,-1.0630533184471804,0.6505425958737178
1756805816.0745134,-1.0630533184471804,0.6478856653920991
1756805816.0765934,-1.0630533184471804,0.7169658579141858
1756805816.0784328,-1.0630533184471804,0.7488490236936104
1756805816.0807023,-1.0630533184471804,0.6717980397266675
1756805816.0822575,-1.0630533184471804,0.5309807242008756
1756805816.0917127,-1.0630533184471804,0.44595894878907666
1756805816.0924635,-1.0630533184471804,0.4353312268626018
1756805816.092723,-1.0630533184471804,0.461900531678789
1756805816.0929277,-1.0630533184471804,0.49378369745821354
1756805816.0931346,-1.0630533184471804,0.5389515156457317
1756805816.0935888,-1.1021575987874446,0.5389515156457317
1756805816.0941174,-1.1021575987874446,0.5974039862413435
1756805816.115981,-1.1021575987874446,0.6000609167229622
1756805816.1165175,-1.1021575987874446,0.49112676697659485
1756805816.1168597,-1.1021575987874446,0.31045549422652213
1756805816.1175103,-1.1021575987874446,0.1749520396639676
1756805816.1194944,-1.1021575987874446,0.14838273484778045
1756805816.119796,-1.1021575987874446,0.18292283110882376
1756805816.120134,-1.1021575987874446,0.18026590062720504
1756805816.1203718,-1.1021575987874446,0.11649956906835585
1756805816.120571,-1.1021575987874446,0.04476244606465051
1756805816.1207669,-1.1021575987874446,0.02085007173008207
1756805816.1211786,-1.1021575987874446,0.03944858510141308
1756805816.1215148,-1.1021575987874446,0.07133175088083768
1756805816.123325,-1.1021575987874446,0.10321491666026227
1756805816.1250126,-1.1021575987874446,0.12712729099483072
1756805816.125465,-1.1021575987874446,0.11915649954997456
1756805816.1257534,-1.1021575987874446,0.03944858510141308
1756805816.1274478,-1.1021575987874446,-0.09605486946114146
1756805816.1295595,-1.1021575987874446,-0.2049890192075088
1756805816.1388535,-1.1021575987874446,-0.24218604595017085
1756805816.1396856,-1.1021575987874446,-0.24218604595017085
1756805816.1399002,-1.1021575987874446,-0.2660984202847393
1756805816.1400974,-1.1021575987874446,-0.3272078213619698
1756805816.1411629,-1.1021575987874446,-0.3484632652149195
1756805816.1413684,-1.1021575987874446,-0.27938307269283286
1756805816.1417992,-0.9867369003637619,-0.27938307269283286
1756805816.1432886,-0.9867369003637619,-0.18904743631779652
1756805816.1453931,-0.9867369003637619,-0.2182736716156024
1756805816.14878,-0.9867369003637619,-0.40957266629215
1756805816.1490476,-0.9867369003637619,-0.6274409657848847
1756805816.152702,-0.9867369003637619,-0.6779226449356404
1756805816.1542034,-0.9867369003637619,-0.5557038427811793
1756805816.156226,-0.9867369003637619,-0.45474048447966814
1756805816.157128,-0.9867369003637619,-0.5583607732627981
1756805816.1644678,-0.9867369003637619,-0.8054553080533386
1756805816.1647632,-0.9867369003637619,-0.9383018321342744
1756805816.1649632,-0.9867369003637619,-0.8134260994981948
1756805816.1651602,-0.9867369003637619,-0.5822731475973665
1756805816.1670475,-0.9867369003637619,-0.49990830266718633
1756805816.169329,-0.9867369003637619,-0.6540102706010719
1756805816.1713293,-0.9867369003637619,-0.8718785700938065
1756805816.172676,-0.9867369003637619,-0.9754988588769364
1756805816.1746533,-0.9867369003637619,-0.9754988588769364
1756805816.176592,-0.9867369003637619,-1.0233236075460734
1756805816.1786375,-0.9867369003637619,-1.1827394364431962
1756805816.18056,-0.9867369003637619,-1.3448121958219381
1756805816.18248,-0.9867369003637619,-1.3820092225646001
1756805816.184577,-0.9867369003637619,-1.3129290300425134
1756805816.186484,-0.9867369003637619,-1.2571334899285205
1756805816.1885784,-0.9867369003637619,-1.289016655707945
1756805816.191937,-0.9867369003637619,-1.3501260567851754
1756805816.1925669,-0.9867369003637619,-1.3448121958219381
1756805816.194276,-0.7779705004826748,-1.3448121958219381
1756805816.1942823,-0.7779705004826748,-1.2677612118549952
1756805816.1966596,-0.7779705004826748,-1.1933671583696712
1756805816.1994762,-0.7779705004826748,-1.1960240888512899
1756805816.201,-0.7779705004826748,-1.2624473508917577
1756805816.2021468,-0.7779705004826748,-1.3341844738954631
1756805816.204134,-0.7779705004826748,-1.3580968482300315
1756805816.20626,-0.7779705004826748,-1.3448121958219381
1756805816.2080414,-0.7779705004826748,-1.326213682450607
1756805816.210132,-0.7779705004826748,-1.2943305166711825
1756805816.2347832,-0.7779705004826748,-1.2305641851123332
1756805816.2362554,-0.7779705004826748,-1.1455424097005342
1756805816.2367728,-0.7779705004826748,-1.0870899391049225
1756805816.237019,-0.7779705004826748,-1.0950607305497786
1756805816.23725,-0.7779705004826748,-1.1455424097005342
1756805816.2375493,-0.7779705004826748,-1.1588270621086278
1756805816.2383783,-0.7779705004826748,-1.0791191476600663
1756805816.2386878,-0.7779705004826748,-0.9383018321342744
1756805816.2389412,-0.7779705004826748,-0.8240538214246697
1756805816.2391925,-0.7779705004826748,-0.792170655645245
1756805816.2413917,-0.48500375503021254,-0.792170655645245
1756805816.2428002,-0.48500375503021254,-0.8027983775717199
1756805816.2430007,-0.48500375503021254,-0.7602874898658204
1756805816.2431972,-0.48500375503021254,-0.6194701743400286
1756805816.2433925,-0.48500375503021254,-0.428171179663481
1756805816.2435875,-0.48500375503021254,-0.27672614221121417
1756805816.243782,-0.48500375503021254,-0.21561674113398369
1756805816.2447116,-0.48500375503021254,-0.1837335753545591
1756805816.2454133,-0.48500375503021254,-0.0880840780162853
1756805816.2474337,-0.48500375503021254,0.11384263858673713
1756805816.2497268,-0.48500375503021254,0.34499559048756545
1756805816.2513623,-0.48500375503021254,0.4964406279398323
1756805816.2533236,-0.48500375503021254,0.5230099327560195
1756805816.255236,-0.48500375503021254,0.49378369745821354
1756805816.257526,-0.48500375503021254,0.5336376546824942
1756805816.2591949,-0.48500375503021254,0.6744549702082863
1756805816.261322,-0.48500375503021254,0.8285569381421719
1756805816.2635813,-0.48500375503021254,0.9002940611458772
1756805816.2654524,-0.48500375503021254,0.8949802001826398
1756805816.2671363,-0.48500375503021254,0.892323269701021
1756805816.2691407,-0.48500375503021254,0.9454618793333954
1756805816.2720704,-0.48500375503021254,0.9906296975209136
1756805816.2729683,-0.48500375503021254,0.9826589060760574
1756805816.2754629,-0.48500375503021254,0.9507757402966328
1756805816.2769284,-0.48500375503021254,0.9959435584841511
1756805816.2788177,-0.48500375503021254,1.1287900825650867
1756805816.2808137,-0.48500375503021254,1.2350673018298355
1756805816.2827964,-0.48500375503021254,1.2324103713482168
1756805816.2847347,-0.48500375503021254,1.1872425531606985
1756805816.2867036,-0.48500375503021254,1.2377242323114541
1756805816.2889254,-0.48500375503021254,1.426366296506383
1756805816.2932713,-0.14299898060266114,1.426366296506383
1756805816.2947078,-0.14299898060266114,1.6389207350358803
1756805816.294945,-0.14299898060266114,1.7212855799660605
1756805816.2951405,-0.14299898060266114,1.6389207350358803
1756805816.2965002,-0.14299898060266114,1.5060742109549445
1756805816.2984903,-0.14299898060266114,1.4476217403593328
1756805816.3004684,-0.14299898060266114,1.503417280473326
1756805816.3024988,-0.14299898060266114,1.6336068740726428
1756805816.307315,-0.14299898060266114,1.7558256762271038
1756805816.3075385,-0.14299898060266114,1.7770811200800536
1756805816.308529,-0.14299898060266114,1.6628331093704487
1756805816.3110628,-0.14299898060266114,1.4821618366203761
1756805816.3122516,-0.14299898060266114,1.3865123392821024
1756805816.3143642,-0.14299898060266114,1.466220253730664
1756805816.3162663,-0.14299898060266114,1.6282930131094056
1756805816.3198023,-0.14299898060266114,1.6761177617785423
1756805816.320109,-0.14299898060266114,1.529986585289513
1756805816.321997,-0.14299898060266114,1.3466583820578215
1756805816.3263657,-0.14299898060266114,1.3254029382048718
1756805816.3269627,-0.14299898060266114,1.463563323249045
1756805816.3279314,-0.14299898060266114,1.575154403477031
1756805816.330012,-0.14299898060266114,1.5618697510689377
1756805816.3320415,-0.14299898060266114,1.5220157938446568
1756805816.3339386,-0.14299898060266114,1.6096944997380744
1756805816.335898,-0.14299898060266114,1.76379646767196
1756805816.3382404,-0.14299898060266114,1.800993494414622
1756805816.339819,-0.14299898060266114,1.6708039008153048
1756805816.3419912,-0.14299898060266114,1.5326435157711318
1756805816.3463542,-0.14299898060266114,1.5353004462527504
1756805816.3466463,-0.14299898060266114,1.5884390558851247
1756805816.3478022,-0.14299898060266114,1.511388071918182
1756805816.3495886,-0.14299898060266114,1.2961767029070659
1756805816.3502405,0.15871892436143273,1.2961767029070659
1756805816.3515036,0.15871892436143273,1.1287900825650867
1756805816.353546,0.15871892436143273,1.1473885959364178
1756805816.3554342,0.15871892436143273,1.2510088847195477
1756805816.3575072,0.15871892436143273,1.2722643285724975
1756805816.3603508,0.15871892436143273,1.2191257189401232
1756805816.3613336,0.15871892436143273,1.229753440866598
1756805816.3633142,0.15871892436143273,1.3360306601313467
1756805816.3654242,0.15871892436143273,1.3838554088004835
1756805816.367301,0.15871892436143273,1.2563227456827852
1756805816.3810525,0.15871892436143273,1.0597098900430002
1756805816.3813982,0.15871892436143273,1.006571280410626
1756805816.3817177,0.15871892436143273,1.1208192911202306
1756805816.3819194,0.15871892436143273,1.1978702750871735
1756805816.3821154,0.15871892436143273,1.0756514729327125
1756805816.3823102,0.15871892436143273,0.8444985210318842
1756805816.3825035,0.15871892436143273,0.7196227883958045
1756805816.38309,0.15871892436143273,0.780732189473035
1756805816.3880384,0.15871892436143273,0.8896663392194023
1756805816.3883128,0.15871892436143273,0.8843524782561649
1756805816.3890543,0.15871892436143273,0.7594767456200853
1756805816.3933408,-0.07149175828689601,0.7594767456200853
1756805816.4136307,-0.07149175828689601,0.6505425958737178
1756805816.414019,-0.07149175828689601,0.6346010129840055
1756805816.414261,-0.07149175828689601,0.6638272482818114
1756805816.414457,-0.07149175828689601,0.6505425958737178
1756805816.4146516,-0.07149175828689601,0.592090125278106
1756805816.4148462,-0.07149175828689601,0.5681777509435376
1756805816.415041,-0.07149175828689601,0.6160024996126745
1756805816.4153628,-0.07149175828689601,0.6877396226163799
1756805816.415558,-0.07149175828689601,0.6850826921347613
1756805816.4157526,-0.07149175828689601,0.6000609167229622
1756805816.415971,-0.07149175828689601,0.5097252803479259
1756805816.416166,-0.07149175828689601,0.499097558421451
1756805816.4163911,-0.07149175828689601,0.5495792375722066
1756805816.4166152,-0.07149175828689601,0.5788054728700125
1756805816.4184525,-0.07149175828689601,0.5389515156457317
1756805816.423698,-0.07149175828689601,0.48049904505012
1756805816.4416664,-0.15845147847905583,0.48049904505012
1756805816.446366,-0.15845147847905583,0.46455746216040766
1756805816.44668,-0.15845147847905583,0.47252825360526385
1756805816.4469647,-0.15845147847905583,0.4698713231236451
1756805816.447912,-0.15845147847905583,0.47784211456850123
1756805816.4481766,-0.15845147847905583,0.5416084461273505
1756805816.4485812,-0.15845147847905583,0.6027178472045809
1756805816.4487777,-0.15845147847905583,0.5522361680538254
1756805816.4489713,-0.15845147847905583,0.3689079648221339
1756805816.4491854,-0.15845147847905583,0.2041782749617735
1756805816.449403,-0.15845147847905583,0.2068352054433922
1756805816.4496384,-0.15845147847905583,0.31576935518975957
1756805816.449836,-0.15845147847905583,0.3317109380794719
1756805816.450031,-0.15845147847905583,0.18026590062720504
1756805816.4502268,-0.15845147847905583,0.04741937654626923
1756805816.4507868,-0.15845147847905583,0.10852877762349969
1756805816.451813,-0.15845147847905583,0.29982777230004726
1756805816.4538383,-0.15845147847905583,0.39016340867508364
1756805816.4557393,-0.15845147847905583,0.28388618941033494
1756805816.4578075,-0.15845147847905583,0.1590104567742553
1756805816.462209,-0.15845147847905583,0.22809064929634193
1756805816.462535,-0.15845147847905583,0.43798815734422053
1756805816.463755,-0.15845147847905583,0.5575500290170627
1756805816.4656134,-0.15845147847905583,0.44595894878907666
1756805816.4676058,-0.15845147847905583,0.22809064929634193
1756805816.4695604,-0.15845147847905583,0.10587184714188098
1756805816.471504,-0.15845147847905583,0.11384263858673713
1756805816.4736538,-0.15845147847905583,0.11118570810511841
1756805816.4754045,-0.15845147847905583,-0.021660815975817392
1756805816.4774194,-0.15845147847905583,-0.22358753257883984
1756805816.4793928,-0.15845147847905583,-0.3564340566597757
1756805816.491624,-0.15845147847905583,-0.34049247377006336
1756805816.4919188,-0.15845147847905583,-0.22624446306045856
1756805816.4921725,-0.15845147847905583,-0.11465338283247246
1756805816.4934428,-0.15845147847905583,-0.0562009122368607
1756805816.493647,-0.15845147847905583,-0.029631607420673542
1756805816.493844,-0.15845147847905583,0.015536210766844636
1756805816.4944904,-0.15845147847905583,0.10852877762349969
1756805816.4950063,-0.15845147847905583,0.23074757977796065
1756805816.496969,-0.15845147847905583,0.32639707711623445
1756805816.4989495,-0.15845147847905583,0.3423386600059467
1756805816.5009203,-0.15845147847905583,0.25200302363091037
1756805816.5029502,-0.15845147847905583,0.0766456118440751
1756805816.5030727,-0.27182235575586977,0.0766456118440751
1756805816.504876,-0.27182235575586977,-0.11731031331409118
1756805816.5094535,-0.27182235575586977,-0.2528137678766457
1756805816.5097136,-0.27182235575586977,-0.2820400031744516
1756805816.515383,-0.27182235575586977,-0.2182736716156024
1756805816.515802,-0.27182235575586977,-0.1518504095751345
1756805816.5166411,-0.27182235575586977,-0.16513506198322808
1756805816.5168426,-0.27182235575586977,-0.25812762883988316
1756805816.51899,-0.27182235575586977,-0.34049247377006336
1756805816.526054,-0.27182235575586977,-0.32455089088035105
1756805816.5269797,-0.27182235575586977,-0.20233208872589012
1756805816.5276067,-0.27182235575586977,-0.072142495126573
1756805816.5278215,-0.27182235575586977,-0.03494546838391097
1756805816.5285945,-0.27182235575586977,-0.11465338283247246
1756805816.5305495,-0.27182235575586977,-0.2368721849869334
1756805816.532536,-0.27182235575586977,-0.3112662384722575
1756805816.5344703,-0.27182235575586977,-0.3006385165457826
1756805816.5384178,-0.27182235575586977,-0.22890139354207728
1756805816.5385993,-0.27182235575586977,-0.15982120101999064
1756805816.542801,-0.27182235575586977,-0.1359088266854222
1756805816.5429108,-0.27182235575586977,-0.14653654861189708
1756805816.5441144,-0.27182235575586977,-0.17576278390970296
1756805816.5460756,-0.33647056115711277,-0.17576278390970296
1756805816.5467403,-0.33647056115711277,-0.2182736716156024
1756805816.548057,-0.33647056115711277,-0.2846969336560703
1756805816.550117,-0.33647056115711277,-0.35909098714139437
1756805816.5521896,-0.33647056115711277,-0.3750325700311067
1756805816.553965,-0.33647056115711277,-0.29532465558254517
1756805816.5558617,-0.33647056115711277,-0.17310585342808424
1756805816.5598457,-0.33647056115711277,-0.1359088266854222
1756805816.5600865,-0.33647056115711277,-0.23952911546855213
1756805816.5649605,-0.33647056115711277,-0.3962880138840564
1756805816.565251,-0.33647056115711277,-0.4600543454429056
1756805816.5657756,-0.33647056115711277,-0.3936310834024377
1756805816.567932,-0.33647056115711277,-0.2820400031744516
1756805816.5696082,-0.33647056115711277,-0.23952911546855213
1756805816.5715709,-0.33647056115711277,-0.2820400031744516
1756805816.5735345,-0.33647056115711277,-0.35377712617815693
1756805816.5755086,-0.33647056115711277,-0.4016018748472938
1756805816.5775409,-0.33647056115711277,-0.4148865272553874
1756805816.5794256,-0.33647056115711277,-0.4122295967737687
1756805816.5813878,-0.33647056115711277,-0.3936310834024377
1756805816.583381,-0.33647056115711277,-0.3936310834024377
1756805816.58538,-0.33647056115711277,-0.4627112759245243
1756805816.587469,-0.33647056115711277,-0.5955578000054601
1756805816.5895765,-0.33647056115711277,-0.7044919497518274
1756805816.5941875,-0.33647056115711277,-0.7204335326415398
1756805816.5942762,-0.33647056115711277,-0.6646379925275467
1756805816.595423,-0.33647056115711277,-0.6486964096378345
1756805816.5971577,-0.33647056115711277,-0.7151196716783023
1756805816.5982914,-0.3017812802101043,-0.7151196716783023
1756805816.5990722,-0.3017812802101043,-0.8001414470901012
1756805816.6011384,-0.3017812802101043,-0.8267107519062884
1756805816.6030734,-0.3017812802101043,-0.8081122385349574
1756805816.6050923,-0.3017812802101043,-0.8134260994981948
1756805816.6071458,-0.3017812802101043,-0.8399954043143819
1756805816.608952,-0.3017812802101043,-0.8134260994981948
1756805816.614158,-0.3017812802101043,-0.6965211583069713
1756805816.6143165,-0.3017812802101043,-0.5849300780789852
1756805816.6148863,-0.3017812802101043,-0.606185521931935
1756805816.6168013,-0.3017812802101043,-0.7443459069761081
1756805816.6189432,-0.3017812802101043,-0.8187399604614322
1756805816.620932,-0.3017812802101043,-0.717776602159921
1756805816.6229885,-0.3017812802101043,-0.5557038427811793
1756805816.6247015,-0.3017812802101043,-0.568988495189273
1756805816.6287816,-0.3017812802101043,-0.8134260994981948
1756805816.628932,-0.3017812802101043,-1.0817760781416852
1756805816.6310086,-0.3017812802101043,-1.140228548737297
1756805816.632765,-0.3017812802101043,-0.9781557893585552
1756805816.6353672,-0.3017812802101043,-0.8267107519062884
1756805816.6366527,-0.3017812802101043,-0.8692216396121878
1756805816.638604,-0.3017812802101043,-1.0419221209174043
1756805816.640494,-0.21679254188993366,-1.0419221209174043
1756805816.640879,-0.21679254188993366,-1.1349146877740595
1756805816.6424353,-0.21679254188993366,-1.0472359818806418
1756805816.6451638,-0.21679254188993366,-0.8745355005754253
1756805816.6463506,-0.21679254188993366,-0.7868567946820076
1756805816.6484663,-0.21679254188993366,-0.8134260994981948
1756805816.652661,-0.21679254188993366,-0.8718785700938065
1756805816.652802,-0.21679254188993366,-0.8878201529835188
1756805816.6542306,-0.21679254188993366,-0.9064186663548498
1756805816.6561198,-0.21679254188993366,-1.0020681636931237
1756805816.6600995,-0.21679254188993366,-1.166797853553484
1756805816.660278,-0.21679254188993366,-1.3129290300425134
1756805816.6637745,-0.21679254188993366,-1.374038431119744
1756805816.665226,-0.21679254188993366,-1.3713815006381251
1756805816.6671972,-0.21679254188993366,-1.374038431119744
1756805816.6678586,-0.21679254188993366,-1.4324909017153558
1756805816.6698437,-0.21679254188993366,-1.5095418856822984
1756805816.6718411,-0.21679254188993366,-1.5281403990536295
1756805816.6741023,-0.21679254188993366,-1.4617171370131616
1756805816.6757565,-0.21679254188993366,-1.3713815006381251
1756805816.6777666,-0.21679254188993366,-1.336841404377082
1756805816.680018,-0.21679254188993366,-1.3846661530462188
1756805816.681811,-0.21679254188993366,-1.4590602065315428
1756805816.683802,-0.21679254188993366,-1.504228024719061
1756805816.6857462,-0.21679254188993366,-1.5334542600168668
1756805816.6875966,-0.21679254188993366,-1.5839359391676224
1756805816.689675,-0.21679254188993366,-1.6663007840978028
1756805816.6908252,-0.14441808755049332,-1.6663007840978028
1756805816.691762,-0.14441808755049332,-1.7513225595096016
1756805816.6936734,-0.14441808755049332,-1.812431960586832
1756805816.6955402,-0.14441808755049332,-1.8575997787743503
1756805816.698512,-0.14441808755049332,-1.8894829445537749
1756805816.6995928,-0.14441808755049332,-1.860256709255969
1756805816.701632,-0.14441808755049332,-1.7406948375831268
1756805816.7041955,-0.14441808755049332,-1.6025344525389535
1756805816.7148893,-0.14441808755049332,-1.5733082172411477
1756805816.7151566,-0.14441808755049332,-1.6875562279507523
1756805816.7157624,-0.14441808755049332,-1.8336874044397817
1756805816.71603,-0.14441808755049332,-1.8735413616640626
1756805816.7161002,-0.14441808755049332,-1.8071180996235947
1756805816.7161636,-0.14441808755049332,-1.7805487948074075
1756805816.7178226,-0.14441808755049332,-1.8894829445537749
1756805816.724104,-0.14441808755049332,-2.0781250087487035
1756805816.724262,-0.14441808755049332,-2.1817452975318337
1756805816.7244012,-0.14441808755049332,-2.1153220354913658
1756805816.724915,-0.14441808755049332,-1.9319938322596744
1756805816.7405255,-0.14441808755049332,-1.7592933509544577
1756805816.7406034,-0.14441808755049332,-1.6875562279507523
1756805816.7406497,-0.14441808755049332,-1.708811671803702
1756805816.7406938,-0.14441808755049332,-1.7274101851750332
1756805816.7407374,-0.14441808755049332,-1.6503592012080903
1756805816.7407975,-0.14441808755049332,-1.475001789421255
1756805816.7408416,-0.14441808755049332,-1.3049582385976572
1756805816.7408843,-0.14441808755049332,-1.2544765594469016
1756805816.7426183,-0.14441808755049332,-1.3448121958219381
1756805816.7445283,-0.14441808755049332,-1.4564032760499241
1756805816.7456305,-0.2866441394332279,-1.4564032760499241
1756805816.7464662,-0.2866441394332279,-1.4537463455683053
1756805816.7485387,-0.2866441394332279,-1.3208998214873695
1756805816.7503889,-0.2866441394332279,-1.185396366924815
1756805816.7532277,-0.2866441394332279,-1.1800825059615776
1756805816.7543857,-0.2866441394332279,-1.2969874471528011
1756805816.7564287,-0.2866441394332279,-1.4218631797888808
1756805816.7588203,-0.2866441394332279,-1.4245201102704994
1756805816.763783,-0.2866441394332279,-1.289016655707945
1756805816.7639678,-0.2866441394332279,-1.0817760781416852
1756805816.7658012,-0.2866441394332279,-0.9197033187629434
1756805816.7670755,-0.2866441394332279,-0.8851632225019002
1756805816.7681391,-0.2866441394332279,-0.9808127198401739
1756805816.770139,-0.2866441394332279,-1.0897468695865413
1756805816.772233,-0.2866441394332279,-1.063177564770354
1756805816.7741215,-0.2866441394332279,-0.8957909444283749
1756805816.7764597,-0.2866441394332279,-0.7496597679393456
1756805816.7781556,-0.2866441394332279,-0.810769169016576
1756805816.77998,-0.2866441394332279,-1.0605206342887354
1756805816.7818289,-0.2866441394332279,-1.2544765594469016
1756805816.7837975,-0.2866441394332279,-1.185396366924815
1756805816.7857838,-0.2866441394332279,-0.9303310406894183
1756805816.7877226,-0.2866441394332279,-0.7602874898658204
1756805816.7897208,-0.2866441394332279,-0.8453092652776194
1756805816.7917106,-0.2866441394332279,-1.0286374685093107
1756805816.7937229,-0.2866441394332279,-1.0286374685093107
1756805816.799123,-0.5714116002982154,-1.0286374685093107
1756805816.7992747,-0.5714116002982154,-0.773572142273914
1756805816.8047965,-0.5714116002982154,-0.483966719777474
1756805816.8050206,-0.5714116002982154,-0.40425880532891256
1756805816.805173,-0.5714116002982154,-0.5397622598914671
1756805816.8052385,-0.5714116002982154,-0.6938642278253525
1756805816.812287,-0.5714116002982154,-0.7310612545680145
1756805816.81243,-0.5714116002982154,-0.7071488802334461
1756805816.8124914,-0.5714116002982154,-0.7496597679393456
1756805816.8125513,-0.5714116002982154,-0.8559369872040943
1756805816.81331,-0.5714116002982154,-0.9303310406894183
1756805816.8152394,-0.5714116002982154,-0.9489295540607493
1756805816.817366,-0.5714116002982154,-0.9781557893585552
1756805816.8193183,-0.5714116002982154,-1.0711483562152102
1756805816.8212516,-0.5714116002982154,-1.1349146877740595
1756805816.8232782,-0.5714116002982154,-1.0233236075460734
1756805816.825236,-0.5714116002982154,-0.7337181850496333
1756805816.8271291,-0.5714116002982154,-0.45474048447966814
1756805816.8291411,-0.5714116002982154,-0.3484632652149195
1756805816.8311734,-0.5714116002982154,-0.3989449443656751
1756805816.8342984,-0.5714116002982154,-0.45474048447966814
1756805816.8367383,-0.5714116002982154,-0.4202003882186248
1756805816.8369873,-0.5714116002982154,-0.3351786128068259
1756805816.839104,-0.5714116002982154,-0.3006385165457826
1756805816.839212,-0.8076140678373911,-0.3006385165457826
1756805816.8409543,-0.8076140678373911,-0.3458063347333008
1756805816.843101,-0.8076140678373911,-0.4308281101450997
1756805816.844825,-0.8076140678373911,-0.5158498855568986
1756805816.8469875,-0.8076140678373911,-0.5955578000054601
1756805816.8508444,-0.8076140678373911,-0.6752657144540216
1756805816.853925,-0.8076140678373911,-0.7523166984209643
1756805816.8562105,-0.8076140678373911,-0.8187399604614322
1756805816.8562722,-0.8076140678373911,-0.8798493615386627
1756805816.8574193,-0.8076140678373911,-0.9569003455056054
1756805816.8588555,-0.8076140678373911,-1.0764622171784477
1756805816.8615074,-0.8076140678373911,-1.2837027947447075
1756805816.862586,-0.8076140678373911,-1.637074548799997
1756805816.8643925,-0.8076140678373911,-2.1525190622340276
1756805816.8664029,-0.8076140678373911,-2.7264160462636706
1756805816.8686044,-0.8076140678373911,-3.202006602473421
1756805816.8703537,-0.8076140678373911,-3.526152121230904
1756805816.886396,-0.8076140678373911,-3.805129821800869
1756805816.886702,-0.8076140678373911,-4.166472367301015
1756805816.8867865,-0.8076140678373911,-4.559698078580585
1756805816.8868475,-0.8076140678373911,-4.774909447591701
1756805816.886906,-0.8076140678373911,-4.652690645437239
1756805816.886963,-0.8076140678373911,-4.232895629341483
1756805816.8870192,-0.8076140678373911,-3.6988526025361206
1756805816.8870769,-0.8076140678373911,-3.1860650195837086
1756805816.888439,-0.8076140678373911,-2.7051606024107206
1756805816.8901072,-0.8076140678373911,-2.216285393792877
1756805816.8920653,-0.8076140678373911,-1.7220963242117957
1756805816.8937435,-0.879515486527554,-1.7220963242117957
1756805816.8940413,-0.879515486527554,-1.2624473508917577
1756805816.8959036,-0.879515486527554,-0.8639077786489504
1756805816.8979418,-0.879515486527554,-0.5530469122995606
1756805816.899874,-0.879515486527554,-0.35909098714139437
1756805816.901748,-0.879515486527554,-0.2979815860641639
1756805816.9048147,-0.879515486527554,-0.30595237750902005
1756805816.912158,-0.879515486527554,-0.27672614221121417
1756805816.9122467,-0.879515486527554,-0.17841971439132165
1756805816.9123435,-0.879515486527554,-0.09074100849790402
1756805816.9123886,-0.879515486527554,-0.1040256609059976
1756805816.9136307,-0.879515486527554,-0.18107664487294037
1756805816.916219,-0.879515486527554,-0.18904743631779652
1756805816.9175053,-0.879515486527554,-0.08277021705304786
1756805816.9195158,-0.879515486527554,0.0261639326933195
1756805816.9214444,-0.879515486527554,-0.021660815975817392
1756805816.92343,-0.879515486527554,-0.21295981065236497
1756805816.925398,-0.879515486527554,-0.3803464309943441
1756805816.927514,-0.879515486527554,-0.3830033614759628
1756805816.929539,-0.879515486527554,-0.26875535076635804
1756805816.9315636,-0.879515486527554,-0.21561674113398369
1756805816.9333837,-0.879515486527554,-0.30595237750902005
1756805816.9353194,-0.879515486527554,-0.4308281101450997
1756805816.9376192,-0.879515486527554,-0.4148865272553874
1756805816.939195,-0.879515486527554,-0.22358753257883984
1756805816.942014,-0.9091590538822703,-0.22358753257883984
1756805816.9425268,-0.9091590538822703,0.0075654193219884865
1756805816.9435546,-0.9091590538822703,0.0925871947337874
1756805816.946155,-0.9091590538822703,-0.021660815975817392
1756805816.9471042,-0.9091590538822703,-0.21295981065236497
1756805816.9490044,-0.9091590538822703,-0.34314940425168206
1756805816.9509628,-0.9091590538822703,-0.3644048481046318
1756805816.9529986,-0.9091590538822703,-0.3325216823252072
1756805816.9549174,-0.9091590538822703,-0.3139231689538762
1756805816.9568946,-0.9091590538822703,-0.32189396039873236
1756805816.9615204,-0.9091590538822703,-0.3112662384722575
1756805816.9616778,-0.9091590538822703,-0.24749990691340829
1756805816.9627972,-0.9091590538822703,-0.15716427053837193
1756805816.9647503,-0.9091590538822703,-0.08011328657142915
1756805816.9666128,-0.9091590538822703,-0.019003885494198677
1756805816.9774702,-0.9091590538822703,0.04741937654626923
1756805816.9783092,-0.9091590538822703,0.11915649954997456
1756805816.9785538,-0.9091590538822703,0.16432431773749273
1756805816.9788027,-0.9091590538822703,0.143068873884543
1756805816.9789128,-0.9091590538822703,0.06867482039921896
1756805816.9789617,-0.9091590538822703,-0.024317746457436108
1756805816.980354,-0.9091590538822703,-0.10668259138761632
1756805816.9828925,-0.9091590538822703,-0.1837335753545591
1756805816.9858077,-0.9091590538822703,-0.2528137678766457
1756805816.9862876,-0.9091590538822703,-0.27938307269283286
1756805816.9882548,-0.9091590538822703,-0.250156837395027
1756805816.9902835,-0.9091590538822703,-0.21295981065236497
1756805816.9922109,-0.9091590538822703,-0.24749990691340829
1756805816.9935346,-0.9060054828870877,-0.24749990691340829
1756805816.994685,-0.9060054828870877,-0.3750325700311067
1756805816.9963927,-0.9060054828870877,-0.4919375112223302
1756805816.9980412,-0.9060054828870877,-0.4786528588142366
1756805817.0003753,-0.9060054828870877,-0.3298647518435885
1756805817.004542,-0.9060054828870877,-0.2182736716156024
1756805817.0050669,-0.9060054828870877,-0.28735386413768904
1756805817.0061493,-0.9060054828870877,-0.51319295507528
1756805817.0087433,-0.9060054828870877,-0.69917808878859
1756805817.0099847,-0.9060054828870877,-0.6779226449356404
1756805817.0120163,-0.9060054828870877,-0.4945944417039489
1756805817.0139368,-0.9060054828870877,-0.34049247377006336
1756805817.015932,-0.9060054828870877,-0.3484632652149195
1756805817.0180247,-0.9060054828870877,-0.44145583207157457
1756805817.021233,-0.9060054828870877,-0.47068206736938045
1756805817.021896,-0.9060054828870877,-0.3962880138840564
1756805817.0237513,-0.9060054828870877,-0.3351786128068259
1756805817.0258653,-0.9060054828870877,-0.40957266629215
1756805817.027652,-0.9060054828870877,-0.568988495189273
1756805817.029734,-0.9060054828870877,-0.6221271048216472
1756805817.031678,-0.9060054828870877,-0.48928058074071146
1756805817.033644,-0.9060054828870877,-0.3139231689538762
1756805817.0355527,-0.9060054828870877,-0.29001079461930773
1756805817.0375762,-0.9060054828870877,-0.43614197110833713
1756805817.0399396,-0.9060054828870877,-0.5769592866341291
1756805817.0414577,-0.9060054828870877,-0.5424191903730858
1756805817.0435214,-0.9060054828870877,-0.38566029195758156
1756805817.0456517,-0.8851919143188827,-0.38566029195758156
1756805817.046616,-0.8851919143188827,-0.3112662384722575
1756805817.0475943,-0.8851919143188827,-0.43614197110833713
1756805817.0493548,-0.8851919143188827,-0.6513533401194531
1756805817.0513325,-0.8851919143188827,-0.7602874898658204
1756805817.0532944,-0.8851919143188827,-0.7124627411966835
1756805817.0552404,-0.8851919143188827,-0.6566672010826906
1756805817.0574777,-0.8851919143188827,-0.7470028374577269
1756805817.0590968,-0.8851919143188827,-0.9622142064688429
1756805817.0725207,-0.8851919143188827,-1.1083453829578722
1756805817.0728772,-0.8851919143188827,-1.0233236075460734
1756805817.0730786,-0.8851919143188827,-0.7868567946820076
1756805817.0732806,-0.8851919143188827,-0.6354117572297409
1756805817.073733,-0.8851919143188827,-0.7443459069761081
1756805817.0755825,-0.8851919143188827,-0.9994112332115049
1756805817.0758357,-0.8851919143188827,-1.100374591513016
1756805817.0760615,-0.8851919143188827,-0.8931340139467563
1756805817.0768442,-0.8851919143188827,-0.587587008560604
1756805817.0863907,-0.8851919143188827,-0.5371053294098483
1756805817.0866847,-0.8851919143188827,-0.8267107519062884
1756805817.086884,-0.8851919143188827,-1.1694547840351028
1756805817.0870814,-0.8851919143188827,-1.2358780460755707
1756805817.0872772,-0.8851919143188827,-1.0445790513990232
1756805817.0906296,-0.8851919143188827,-0.9276741102077996
1756805817.0909312,-0.8851919143188827,-1.1189731048843472
1756805817.0925598,-0.8851919143188827,-1.4590602065315428
1756805817.0953896,-0.8851919143188827,-1.6237898963919033
1756805817.095611,-0.6808405138310512,-1.6237898963919033
1756805817.0965118,-0.6808405138310512,-1.5547097038698166
1756805817.09982,-0.6808405138310512,-1.4989141637558236
1756805817.1005857,-0.6808405138310512,-1.634417618318378
1756805817.103032,-0.6808405138310512,-1.823059682513307
1756805817.1046753,-0.6808405138310512,-1.7991473081787386
1756805817.10648,-0.6808405138310512,-1.5493958429065793
1756805817.1091905,-0.6808405138310512,-1.3554399177484129
1756805817.1102402,-0.6808405138310512,-1.4032646664175499
1756805817.112553,-0.6808405138310512,-1.5706512867595288
1756805817.116691,-0.6808405138310512,-1.6025344525389535
1756805817.1169298,-0.6808405138310512,-1.4590602065315428
1756805817.1181743,-0.6808405138310512,-1.3474691263035568
1756805817.120383,-0.6808405138310512,-1.4457755541234492
1756805817.1221323,-0.6808405138310512,-1.6902131584323712
1756805817.1243212,-0.6808405138310512,-1.868227500700825
1756805817.1266685,-0.6808405138310512,-1.8947968055170124
1756805817.1279788,-0.6808405138310512,-1.8708844311824437
1756805817.1306078,-0.6808405138310512,-1.9293369017780555
1756805817.1375227,-0.6808405138310512,-2.059526495377373
1756805817.1378596,-0.6808405138310512,-2.1445482707891714
1756805817.1380773,-0.6808405138310512,-2.104694313564891
1756805817.1382766,-0.6808405138310512,-1.98247551141043
1756805817.1397486,-0.6808405138310512,-1.8921398750353935
1756805817.1418133,-0.6808405138310512,-1.897453735998631
1756805817.1429698,-0.19629433042124686,-1.897453735998631
1756805817.1450098,-0.19629433042124686,-1.9612200675574802
1756805817.1456492,-0.19629433042124686,-2.0249863991163295
1756805817.1476457,-0.19629433042124686,-2.059526495377373
1756805817.1495712,-0.19629433042124686,-2.0887527306751785
1756805817.1516476,-0.19629433042124686,-2.149862131752409
1756805817.1535158,-0.19629433042124686,-2.2455116290906827
1756805817.155481,-0.19629433042124686,-2.338504195947338
1756805817.1574736,-0.19629433042124686,-2.431496762803993
1756805817.1594408,-0.19629433042124686,-2.5324601211055042
1756805817.161347,-0.19629433042124686,-2.6174818965173032
1756805817.1636794,-0.19629433042124686,-2.6121680355540655
1756805817.166475,-0.19629433042124686,-2.4819784419547486
1756805817.1698675,-0.19629433042124686,-2.3066210301679133
1756805817.1700823,-0.19629433042124686,-2.205657671866402
1756805817.173768,-0.19629433042124686,-2.187059158495071
1756805817.1754816,-0.19629433042124686,-2.1551759927156464
1756805817.1757195,-0.19629433042124686,-2.0329571905611856
1756805817.177457,-0.19629433042124686,-1.8655705702192065
1756805817.1793203,-0.19629433042124686,-1.7832057252890263
1756805817.1825511,-0.19629433042124686,-1.7964903776971197
1756805817.1831937,-0.19629433042124686,-1.7964903776971197
1756805817.1849573,-0.19629433042124686,-1.700840880358846
1756805817.1875265,-0.19629433042124686,-1.5706512867595288
1756805817.1889043,-0.19629433042124686,-1.504228024719061
1756805817.195588,-0.19629433042124686,-1.4936003027925862
1756805817.1964834,-0.19629433042124686,-1.429833971233737
1756805817.196767,-0.19629433042124686,-1.2597904204101391
1756805817.1969764,-0.19629433042124686,-1.073805286696829
1756805817.1976528,0.5509443168872667,-1.073805286696829
1756805817.1993177,0.5509443168872667,-0.9861265808034113
1756805817.200698,0.5509443168872667,-0.9808127198401739
1756805817.205283,0.5509443168872667,-0.9383018321342744
1756805817.2055123,0.5509443168872667,-0.8027983775717199
1756805817.207298,0.5509443168872667,-0.6593241315643094
1756805817.208557,0.5509443168872667,-0.6141563133767911
1756805817.2139735,0.5509443168872667,-0.643382548674597
1756805817.214273,0.5509443168872667,-0.6354117572297409
1756805817.2144804,0.5509443168872667,-0.5185068160385173
1756805817.217331,0.5509443168872667,-0.3325216823252072
1756805817.2186365,0.5509443168872667,-0.17841971439132165
1756805817.221194,0.5509443168872667,-0.1359088266854222
1756805817.2225254,0.5509443168872667,-0.17044892294646552
1756805817.2244987,0.5509443168872667,-0.1837335753545591
1756805817.2264316,0.5509443168872667,-0.1040256609059976
1756805817.2284524,0.5509443168872667,0.0580470984727441
1756805817.230345,0.5509443168872667,0.2227767883331045
1756805817.2324104,0.5509443168872667,0.2892000503735724
1756805817.234245,0.5509443168872667,0.2413753017044355
1756805817.23841,0.5509443168872667,0.1563535262926366
1756805817.238774,0.5509443168872667,0.14572580436616173
1756805817.2421825,0.5509443168872667,0.24934609314929165
1756805817.2424123,0.5509443168872667,0.3981342001199398
1756805817.246165,0.5509443168872667,0.499097558421451
1756805817.2467637,0.5509443168872667,0.5309807242008756
1756805817.248953,0.5509443168872667,0.5442653766089691
1756805817.2499962,0.5509443168872667,0.5708346814251564
1756805817.2518332,0.5509443168872667,0.5947470557597248
1756805817.2538996,0.5509443168872667,0.5841193338332499
1756805817.2558272,0.5509443168872667,0.5469223070905879
1756805817.2604623,0.5509443168872667,0.517696071792782
1756805817.26219,1.1993185134968063,0.517696071792782
1756805817.2646143,1.1993185134968063,0.5044114193846884
1756805817.265206,1.1993185134968063,0.47784211456850123
1756805817.2654665,1.1993185134968063,0.40876192204641465
1756805817.2656758,1.1993185134968063,0.3503094514508029
1756805817.2674978,1.1993185134968063,0.3689079648221339
1756805817.2695873,1.1993185134968063,0.4858129060133574
1756805817.279753,1.1993185134968063,0.639914873947243
1756805817.28063,1.1993185134968063,0.7461920932119916
1756805817.2812643,1.1993185134968063,0.780732189473035
1756805817.2825084,1.1993185134968063,0.7940168418811285
1756805817.2825854,1.1993185134968063,0.8471554515135029
1756805817.282632,1.1993185134968063,0.9162356440355895
1756805817.2830572,1.1993185134968063,0.910921783072352
1756805817.2850375,1.1993185134968063,0.780732189473035
1756805817.2875235,1.1993185134968063,0.5841193338332499
1756805817.2890875,1.1993185134968063,0.4512728097523141
1756805817.291226,1.1993185134968063,0.45658667071555153
1756805817.2930648,1.1993185134968063,0.5522361680538254
1756805817.2948468,1.1993185134968063,0.6186594300942933
1756805817.296913,1.1993185134968063,0.6027178472045809
1756805817.2988572,1.1993185134968063,0.5655208204619189
1756805817.300888,1.1993185134968063,0.5681777509435376
1756805817.3027687,1.1993185134968063,0.6239732910575306
1756805817.304583,1.4087156275769301,0.6239732910575306
1756805817.3046818,1.4087156275769301,0.6717980397266675
1756805817.3066485,1.4087156275769301,0.658513387318574
1756805817.3086293,1.4087156275769301,0.5974039862413435
1756805817.3117976,1.4087156275769301,0.5150391413111632
1756805817.3136978,1.4087156275769301,0.4486158792706954
1756805817.3145456,1.4087156275769301,0.40876192204641465
1756805817.3165028,1.4087156275769301,0.3981342001199398
1756805817.318782,1.4087156275769301,0.37953568674860877
1756805817.3204434,1.4087156275769301,0.31842628567137826
1756805817.3224356,1.4087156275769301,0.2227767883331045
1756805817.3247197,1.4087156275769301,0.1590104567742553
1756805817.3266094,1.4087156275769301,0.16698124821911145
1756805817.3285484,1.4087156275769301,0.2068352054433922
1756805817.3305657,1.4087156275769301,0.17760897014558633
1756805817.3327897,1.4087156275769301,0.0580470984727441
1756805817.3342943,1.4087156275769301,-0.06417170368171685
1756805817.3364077,1.4087156275769301,-0.053543981755241984
1756805817.338395,1.4087156275769301,0.10055798617864355
1756805817.3406482,1.4087156275769301,0.2706015370022414
1756805817.34223,1.4087156275769301,0.3317109380794719
1756805817.344277,1.4087156275769301,0.29185698085519113
1756805817.3460093,1.4087156275769301,0.2706015370022414
1756805817.3479795,1.4087156275769301,0.36359410385889646
1756805817.3487816,1.312216355124343,0.36359410385889646
1756805817.3499615,1.312216355124343,0.5230099327560195
1756805817.3518455,1.312216355124343,0.5894331947964874
1756805817.3544364,1.312216355124343,0.4539297402339328
1756805817.3558662,1.312216355124343,0.1722951091823489
1756805817.3578887,1.312216355124343,-0.06417170368171685
1756805817.3597045,1.312216355124343,-0.11731031331409118
1756805817.361676,1.312216355124343,-0.04291625982876712
1756805817.363701,1.312216355124343,-0.019003885494198677
1756805817.3655884,1.312216355124343,-0.10933952186923504
1756805817.3676984,1.312216355124343,-0.17310585342808424
1756805817.3695748,1.312216355124343,-0.040259329347148404
1756805817.371555,1.312216355124343,0.2227767883331045
1756805817.3734958,1.312216355124343,0.39282033915670234
1756805817.3754654,1.312216355124343,0.3370247990427093
1756805817.384988,1.312216355124343,0.18557976159044245
1756805817.3864553,1.312216355124343,0.1563535262926366
1756805817.3866425,1.312216355124343,0.24934609314929165
1756805817.386801,1.312216355124343,0.24403223218605422
1756805817.386958,1.312216355124343,0.03147779365655693
1756805817.387622,1.312216355124343,-0.20764594968912753
1756805817.3894937,1.312216355124343,-0.2342152545053147
1756805817.39203,1.312216355124343,-0.053543981755241984
1756805817.3931725,1.312216355124343,0.08461640328893126
1756805817.3951433,1.312216355124343,0.0261639326933195
1756805817.3980052,1.312216355124343,-0.0880840780162853
1756805817.3991888,1.312216355124343,-0.03760239886552969
1756805817.3993204,0.9306342647072501,-0.03760239886552969
1756805817.4013057,0.9306342647072501,0.17760897014558633
1756805817.4032242,0.9306342647072501,0.3370247990427093
1756805817.4051225,0.9306342647072501,0.2732584674838601
1756805817.406966,0.9306342647072501,0.06070402895436281
1756805817.40912,0.9306342647072501,-0.1040256609059976
1756805817.413967,0.9306342647072501,-0.16513506198322808
1756805817.4143436,0.9306342647072501,-0.21295981065236497
1756805817.4270797,0.9306342647072501,-0.3139231689538762
1756805817.4273202,0.9306342647072501,-0.41754345773700613
1756805817.427519,0.9306342647072501,-0.428171179663481
1756805817.427715,0.9306342647072501,-0.35909098714139437
1756805817.4279106,0.9306342647072501,-0.2926677251009265
1756805817.428107,0.9306342647072501,-0.2714122812479767
1756805817.4283028,0.9306342647072501,-0.26078455932150185
1756805817.4289885,0.9306342647072501,-0.2049890192075088
1756805817.456199,0.9306342647072501,-0.09605486946114146
1756805817.4565992,0.9306342647072501,0.01287928028522592
1756805817.458072,0.5928868111231952,0.01287928028522592
1756805817.4668112,0.5928868111231952,0.06336095943598152
1756805817.4671516,0.5928868111231952,0.0421055155830318
1756805817.4675038,0.5928868111231952,-0.03760239886552969
1756805817.471095,0.5928868111231952,-0.14122268764865964
1756805817.4713545,0.5928868111231952,-0.21561674113398369
1756805817.471552,0.5928868111231952,-0.21561674113398369
1756805817.4717505,0.5928868111231952,-0.1677919924648468
1756805817.4719472,0.5928868111231952,-0.13325189620380348
1756805817.4721434,0.5928868111231952,-0.14387961813027836
1756805817.472341,0.5928868111231952,-0.17310585342808424
1756805817.472537,0.5928868111231952,-0.1677919924648468
1756805817.472759,0.5928868111231952,-0.072142495126573
1756805817.4757009,0.5928868111231952,0.09790105569702483
1756805817.4830606,0.5928868111231952,0.24403223218605422
1756805817.48341,0.5928868111231952,0.26528767603900394
1756805817.484526,0.5928868111231952,0.12181343003159328
1756805817.484732,0.5928868111231952,-0.0854271475346666
1756805817.484929,0.5928868111231952,-0.19436129728103396
1756805817.4851277,0.5928868111231952,-0.1491934790935158
1756805817.4853268,0.5928868111231952,-0.06417170368171685
1756805817.4856975,0.5928868111231952,-0.10136873042437888
1756805817.4860086,0.5928868111231952,-0.25812762883988316
1756805817.4862998,0.5928868111231952,-0.3670617785862505
1756805817.4887457,0.5928868111231952,-0.2634414898031206
1756805817.4891093,0.5928868111231952,0.0022515583587510543
1756805817.4893446,0.5928868111231952,0.2041782749617735
1756805817.4895537,0.5928868111231952,0.2041782749617735
1756805817.4897504,0.5928868111231952,0.08195947280731254
1756805817.490043,0.5928868111231952,0.010222349803607204
1756805817.4918497,0.5928868111231952,0.06336095943598152
1756805817.493575,0.5928868111231952,0.1404119434029243
1756805817.4955366,0.5928868111231952,0.12447036051321199
1756805817.4964375,0.33587077501581447,0.12447036051321199
1756805817.4975204,0.33587077501581447,-0.008376163567723811
1756805817.5008528,0.33587077501581447,-0.17841971439132165
1756805817.5094054,0.33587077501581447,-0.3139231689538762
1756805817.5273376,0.33587077501581447,-0.3962880138840564
1756805817.5277014,0.33587077501581447,-0.4148865272553874
1756805817.5279028,0.33587077501581447,-0.3351786128068259
1756805817.528098,0.33587077501581447,-0.19170436679941524
1756805817.5282924,0.33587077501581447,-0.072142495126573
1756805817.528539,0.33587077501581447,-0.05088705127362327
1756805817.5287442,0.33587077501581447,-0.09871179994276018
1756805817.5289414,0.33587077501581447,-0.1040256609059976
1756805817.5291378,0.33587077501581447,-0.01634695501257996
1756805817.5293565,0.33587077501581447,0.11384263858673713
1756805817.5295537,0.33587077501581447,0.18292283110882376
1756805817.529748,0.33587077501581447,0.161667387255874
1756805817.5299425,0.33587077501581447,0.10321491666026227
1756805817.530137,0.33587077501581447,0.04741937654626923
1756805817.53092,0.33587077501581447,-0.026974676939054823
1756805817.532918,0.33587077501581447,-0.1040256609059976
1756805817.5395403,0.33587077501581447,-0.11199645235085376
1756805817.5398166,0.33587077501581447,-0.0004053721228676619
1756805817.5400307,0.33587077501581447,0.14838273484778045
1756805817.5426283,0.33587077501581447,0.1722951091823489
1756805817.542839,0.33587077501581447,0.02882086317493822
1756805817.5499191,0.33587077501581447,-0.11465338283247246
1756805817.5503883,0.33587077501581447,-0.05885784271847942
1756805817.5505898,0.33587077501581447,0.16698124821911145
1756805817.5507858,0.33587077501581447,0.29982777230004726
1756805817.5525675,0.33587077501581447,0.143068873884543
1756805817.5546167,0.33587077501581447,-0.19701822776265268
1756805817.5566137,0.33587077501581447,-0.38831722243920025
1756805817.558474,0.33587077501581447,-0.25812762883988316
1756805817.560495,0.33587077501581447,0.018193141248463354
1756805817.5636275,0.33587077501581447,0.13775501292130557
1756805817.5662951,0.33587077501581447,0.0022515583587510543
1756805817.5666518,0.33587077501581447,-0.17841971439132165
1756805817.5692167,0.08555607727319674,-0.17841971439132165
1756805817.5780034,0.08555607727319674,-0.17044892294646552
1756805817.578521,0.08555607727319674,0.04741937654626923
1756805817.5789702,0.08555607727319674,0.2732584674838601
1756805817.5791705,0.08555607727319674,0.31045549422652213
1756805817.57983,0.08555607727319674,0.13509808243968685
1756805817.5800345,0.08555607727319674,-0.09871179994276018
1756805817.5802314,0.08555607727319674,-0.22624446306045856
1756805817.5828362,0.08555607727319674,-0.19436129728103396
1756805817.5929682,0.08555607727319674,-0.0854271475346666
1756805817.5932195,0.08555607727319674,-0.021660815975817392
1756805817.5934637,0.08555607727319674,-0.06417170368171685
1756805817.5937278,0.08555607727319674,-0.17044892294646552
1756805817.5940626,0.08555607727319674,-0.24484297643178957
1756805817.6015558,-0.13070005372144908,-0.24484297643178957
1756805817.6072493,-0.13070005372144908,-0.2182736716156024
1756805817.6074913,-0.13070005372144908,-0.11199645235085376
1756805817.6076913,-0.13070005372144908,0.015536210766844636
1756805817.6078875,-0.13070005372144908,0.10852877762349969
1756805817.608084,-0.13070005372144908,0.12447036051321199
1756805817.6082802,-0.13070005372144908,0.06070402895436281
1756805817.6084769,-0.13070005372144908,-0.05885784271847942
1756805817.6086757,-0.13070005372144908,-0.17841971439132165
1756805817.617642,-0.13070005372144908,-0.22890139354207728
1756805817.619364,-0.13070005372144908,-0.21030288017074625
1756805817.6197414,-0.13070005372144908,-0.20233208872589012
1756805817.620082,-0.13070005372144908,-0.2979815860641639
1756805817.6204214,-0.13070005372144908,-0.5025652331488051
1756805817.6207614,-0.13070005372144908,-0.69917808878859
1756805817.6258783,-0.13070005372144908,-0.7576305593842018
1756805817.6273563,-0.13070005372144908,-0.6513533401194531
1756805817.62779,-0.13070005372144908,-0.4919375112223302
1756805817.6280026,-0.13070005372144908,-0.4016018748472938
1756805817.6292305,-0.13070005372144908,-0.3989449443656751
1756805817.6311655,-0.13070005372144908,-0.3962880138840564
1756805817.6353598,-0.13070005372144908,-0.32455089088035105
1756805817.6362846,-0.13070005372144908,-0.24484297643178957
1756805817.637188,-0.13070005372144908,-0.2554706983582644
1756805817.639442,-0.13070005372144908,-0.36174791762301306
1756805817.6410055,-0.13070005372144908,-0.4308281101450997
1756805817.657936,-0.2305105757189779,-0.4308281101450997
1756805817.6665308,-0.2305105757189779,-0.3830033614759628
1756805817.6675954,-0.2305105757189779,-0.3298647518435885
1756805817.6681595,-0.2305105757189779,-0.4494266235164307
1756805817.6685927,-0.2305105757189779,-0.754973628902583
1756805817.6687942,-0.2305105757189779,-1.025980538027692
1756805817.6689918,-0.2305105757189779,-1.0366082599541668
1756805817.6693368,-0.2305105757189779,-0.8213968909430509
1756805817.6696615,-0.2305105757189779,-0.661981062045928
1756805817.669953,-0.2305105757189779,-0.7682582813106766
1756805817.670154,-0.2305105757189779,-1.0419221209174043
1756805817.670353,-0.2305105757189779,-1.1880532974064337
1756805817.6834517,-0.2305105757189779,-1.063177564770354
1756805817.6994567,-0.3345784185600032,-1.063177564770354
1756805817.7052147,-0.3345784185600032,-0.8054553080533386
1756805817.7058244,-0.3345784185600032,-0.6486964096378345
1756805817.7060676,-0.3345784185600032,-0.69917808878859
1756805817.706347,-0.3345784185600032,-0.8426523347960007
1756805817.7065449,-0.3345784185600032,-0.9117325273180873
1756805817.7067416,-0.3345784185600032,-0.8559369872040943
1756805817.706938,-0.3345784185600032,-0.7443459069761081
1756805817.707133,-0.3345784185600032,-0.6672949230091655
1756805817.707327,-0.3345784185600032,-0.6486964096378345
1756805817.7075205,-0.3345784185600032,-0.6486964096378345
1756805817.707717,-0.3345784185600032,-0.6274409657848847
1756805817.707912,-0.3345784185600032,-0.5769592866341291
1756805817.7081068,-0.3345784185600032,-0.5211637465201361
1756805817.7083025,-0.3345784185600032,-0.4919375112223302
1756805817.7084966,-0.3345784185600032,-0.48662365025909277
1756805817.7118218,-0.3345784185600032,-0.47333899785099914
1756805817.7121968,-0.3345784185600032,-0.446769693034812
1756805817.7124095,-0.3345784185600032,-0.4308281101450997
1756805817.7129276,-0.3345784185600032,-0.47333899785099914
1756805817.7132626,-0.3345784185600032,-0.5557038427811793
1756805817.7134745,-0.3345784185600032,-0.5902439390422227
1756805817.7138994,-0.3345784185600032,-0.5264776074833735
1756805817.714245,-0.3345784185600032,-0.428171179663481
1756805817.7165427,-0.3345784185600032,-0.42551424918186226
1756805817.7168152,-0.3345784185600032,-0.5424191903730858
1756805817.7171583,-0.3345784185600032,-0.6194701743400286
1756805817.7333014,-0.3345784185600032,-0.4919375112223302
1756805817.7396486,-0.3345784185600032,-0.21295981065236497
1756805817.7453592,-0.2935819956226296,-0.21295981065236497
1756805817.7655206,-0.2935819956226296,-0.03760239886552969
1756805817.7657883,-0.2935819956226296,-0.1491934790935158
1756805817.7675097,-0.2935819956226296,-0.40425880532891256
1756805817.7679987,-0.2935819956226296,-0.48662365025909277
1756805817.7688906,-0.2935819956226296,-0.26078455932150185
1756805817.7690911,-0.2935819956226296,0.03147779365655693
1756805817.7693093,-0.2935819956226296,0.03944858510141308
1756805817.769504,-0.2935819956226296,-0.2554706983582644
1756805817.7698803,-0.2935819956226296,-0.5424191903730858
1756805817.770082,-0.2935819956226296,-0.531791468446611
1756805817.770277,-0.2935819956226296,-0.2979815860641639
1756805817.7704742,-0.2935819956226296,-0.1677919924648468
1756805817.7706711,-0.2935819956226296,-0.32189396039873236
1756805817.7708657,-0.2935819956226296,-0.6088424524135537
1756805817.771062,-0.2935819956226296,-0.7257473936047771
1756805817.7712564,-0.2935819956226296,-0.5982147304870788
1756805817.771452,-0.2935819956226296,-0.428171179663481
1756805817.771646,-0.2935819956226296,-0.44145583207157457
1756805817.77184,-0.2935819956226296,-0.6088424524135537
1756805817.7720354,-0.2935819956226296,-0.7151196716783023
1756805817.772379,-0.2935819956226296,-0.6274409657848847
1756805817.7726393,-0.2935819956226296,-0.4494266235164307
1756805817.7765558,-0.2935819956226296,-0.3644048481046318
1756805817.77711,-0.2935819956226296,-0.4148865272553874
1756805817.7776065,-0.2935819956226296,-0.465368206406143
1756805817.7778084,-0.2935819956226296,-0.3936310834024377
1756805817.7780046,-0.2935819956226296,-0.26875535076635804
1756805817.7782028,-0.2935819956226296,-0.23952911546855213
1756805817.7784054,-0.2935819956226296,-0.3484632652149195
1756805817.778666,-0.2935819956226296,-0.48928058074071146
1756805817.78071,-0.2935819956226296,-0.568988495189273
1756805817.7824287,-0.2935819956226296,-0.6141563133767911
1756805817.7852232,-0.2935819956226296,-0.7098058107150649
1756805817.797974,-0.05351640361435528,-0.7098058107150649
1756805817.824126,-0.05351640361435528,-0.8506231262408568
1756805817.831177,-0.05351640361435528,-0.932987971171037
1756805817.84664,0.5588282443752233,-0.932987971171037
1756805817.8522172,0.5588282443752233,-0.8984478749099937
1756805817.864407,0.5588282443752233,-0.8001414470901012
1756805817.8646655,0.5588282443752233,-0.7071488802334461
1756805817.8648877,0.5588282443752233,-0.6300978962665035
1756805817.8651085,0.5588282443752233,-0.5557038427811793
1756805817.865842,0.5588282443752233,-0.5291345379649922
1756805817.8698428,0.5588282443752233,-0.6168132438584099
1756805817.8703475,0.5588282443752233,-0.7895137251636263
1756805817.8705509,0.5588282443752233,-0.9569003455056054
1756805817.8707657,0.5588282443752233,-1.09240380006816
1756805817.870962,0.5588282443752233,-1.2730750728182327
1756805817.871158,0.5588282443752233,-1.5759651477227663
1756805817.8713517,0.5588282443752233,-1.9559062065942427
1756805817.871547,0.5588282443752233,-2.301307169204676
1756805817.8718204,0.5588282443752233,-2.6041972441092094
1756805817.8720188,0.5588282443752233,-2.965539789609355
1756805817.8724823,0.5588282443752233,-3.4198749019661556
1756805817.8734148,0.5588282443752233,-3.8423268485435313
1756805817.876744,0.5588282443752233,-4.0947352442973095
1756805817.8793943,0.5588282443752233,-4.216954046451771
1756805817.8796167,0.5588282443752233,-4.376369875348893
1756805817.8798134,0.5588282443752233,-4.612836688212959
1756805817.880009,0.5588282443752233,-4.732398559885802
1756805817.8802035,0.5588282443752233,-4.517187190874686
1756805817.8804386,0.5588282443752233,-3.9725164421428483
1756805817.880638,0.5588282443752233,-3.3268823351095005
1756805817.880834,0.5588282443752233,-2.798153169267376
1756805817.8813248,0.5588282443752233,-2.4022705275061873
1756805817.8815255,0.5588282443752233,-2.0063878857449984
1756805817.8817208,0.5588282443752233,-1.4909433723109675
1756805817.881917,0.5588282443752233,-0.9011048053916124
1756805817.8821137,0.5588282443752233,-0.4016018748472938
1756805817.882309,0.5588282443752233,-0.1545073400567532
1756805817.8825035,0.5588282443752233,-0.19436129728103396
1756805817.8827295,0.5588282443752233,-0.3484632652149195
1756805817.882927,0.5588282443752233,-0.3936310834024377
1756805817.8831224,0.5588282443752233,-0.2714122812479767
1756805817.883319,0.5588282443752233,-0.14387961813027836
1756805817.8835146,0.5588282443752233,-0.22890139354207728
1756805817.883784,0.5588282443752233,-0.5185068160385173
1756805817.8839817,0.5588282443752233,-0.754973628902583
1756805817.8841774,0.5588282443752233,-0.7390320460128708
1756805817.8849628,0.5588282443752233,-0.550389981817942
1756805817.8851652,0.5588282443752233,-0.4627112759245243
1756805817.885361,0.5588282443752233,-0.5955578000054601
1756805817.8855565,0.5588282443752233,-0.7815429337187701
1756805817.8857503,0.5588282443752233,-0.8027983775717199
1756805817.88597,0.5588282443752233,-0.6672949230091655
1756805817.8861663,0.5588282443752233,-0.5583607732627981
1756805817.8865948,0.5588282443752233,-0.5822731475973665
1756805817.8885164,0.5588282443752233,-0.6460394791562157
1756805817.8906236,0.5588282443752233,-0.6274409657848847
1756805817.8924935,0.5588282443752233,-0.5716454256708917
1756805817.894453,0.5588282443752233,-0.6407256181929782
1756805817.896608,0.5588282443752233,-0.8373384738327633
1756805817.9179273,0.9773071154359524,-0.8373384738327633
1756805817.9214067,0.9773071154359524,-0.9595572759872242
1756805817.936146,0.9773071154359524,-0.8399954043143819
1756805817.9363704,0.9773071154359524,-0.5583607732627981
1756805817.936722,0.9773071154359524,-0.40425880532891256
1756805817.9369428,0.9773071154359524,-0.5264776074833735
1756805817.9375143,0.9773071154359524,-0.7709152117922953
1756805817.9377167,0.9773071154359524,-0.8692216396121878
1756805817.937914,0.9773071154359524,-0.7470028374577269
1756805817.9381096,0.9773071154359524,-0.5902439390422227
1756805817.938306,0.9773071154359524,-0.6141563133767911
1756805817.9385026,0.9773071154359524,-0.8027983775717199
1756805817.9386983,0.9773071154359524,-0.9861265808034113
1756805817.9388952,0.9773071154359524,-1.0233236075460734
1756805817.9390905,0.9773071154359524,-0.9409587626158932
1756805817.9393098,0.9773071154359524,-0.8559369872040943
1756805817.93951,0.9773071154359524,-0.8160830299798135
1756805817.9473758,0.981722114829208,-0.8160830299798135
1756805817.9628203,0.981722114829208,-0.7788860032371515
1756805817.9663603,0.981722114829208,-0.717776602159921
1756805817.9666295,0.981722114829208,-0.6699518534907841
1756805817.9668322,0.981722114829208,-0.6832365058988776
1756805817.9670873,0.981722114829208,-0.7762290727555328
1756805817.9672878,0.981722114829208,-0.8984478749099937
1756805817.967484,0.981722114829208,-1.0047250941747423
1756805817.9676793,0.981722114829208,-1.0578637038071166
1756805817.967874,0.981722114829208,-1.0578637038071166
1756805817.9680705,0.981722114829208,-1.0339513294725482
1756805817.9682648,0.981722114829208,-1.0312943989909296
1756805817.9684615,0.981722114829208,-1.0791191476600663
1756805817.9686575,0.981722114829208,-1.1242869658475845
1756805817.9688532,0.981722114829208,-1.0897468695865413
1756805817.9701536,0.981722114829208,-0.970184997913699
1756805817.9703524,0.981722114829208,-0.8559369872040943
1756805817.9705477,0.981722114829208,-0.8532800567224755
1756805817.9731684,0.981722114829208,-0.9808127198401739
1756805817.9735615,0.981722114829208,-1.148199340182153
1756805817.9737642,0.981722114829208,-1.2810458642630889
1756805817.9739609,0.981722114829208,-1.374038431119744
1756805817.974157,0.981722114829208,-1.429833971233737
1756805817.974862,0.981722114829208,-1.4059215968991685
1756805817.975062,0.981722114829208,-1.289016655707945
1756805817.9925618,0.981722114829208,-1.1561701316270092
1756805817.9930587,0.981722114829208,-1.137571618255678
1756805817.9932675,0.981722114829208,-1.2385349765571894
1756805817.9935102,0.981722114829208,-1.3049582385976572
1756805817.9942136,0.6871785838791545,-1.3049582385976572
1756805817.9983044,0.6871785838791545,-1.2093087412593835
1756805817.9985414,0.6871785838791545,-1.0392651904357857
1756805817.9987395,0.6871785838791545,-1.0126958856195984
1756805817.998937,0.6871785838791545,-1.222593393667477
1756805818.0007637,0.6871785838791545,-1.4989141637558236
1756805818.0012157,0.6871785838791545,-1.6025344525389535
1756805818.0014288,0.6871785838791545,-1.48562951134773
1756805818.001626,0.6871785838791545,-1.3049582385976572
1756805818.0018308,0.6871785838791545,-1.214622602222621
1756805818.002786,0.6871785838791545,-1.2279072546307146
1756805818.0045457,0.6871785838791545,-1.2491626984836643
1756805818.0065153,0.6871785838791545,-1.2252503241490957
1756805818.0084803,0.6871785838791545,-1.1933671583696712
1756805818.0211687,0.6871785838791545,-1.177425575479959
1756805818.022267,0.6871785838791545,-1.1535132011453904
1756805818.0225682,0.6871785838791545,-1.100374591513016
1756805818.0228252,0.6871785838791545,-1.063177564770354
1756805818.023325,0.6871785838791545,-1.111002313439491
1756805818.0238411,0.6871785838791545,-1.2385349765571894
1756805818.0243266,0.6871785838791545,-1.3421552653403193
1756805818.0245264,0.6871785838791545,-1.3315275434138445
1756805818.0285163,0.6871785838791545,-1.2332211155939519
1756805818.028776,0.6871785838791545,-1.1588270621086278
1756805818.0302567,0.6871785838791545,-1.1960240888512899
1756805818.0325322,0.6871785838791545,-1.3129290300425134
1756805818.03415,0.6871785838791545,-1.4138923883440246
1756805818.0363543,0.6871785838791545,-1.4696879284580178
1756805818.0382004,0.6871785838791545,-1.5573666343514354
1756805818.0403752,0.6871785838791545,-1.708811671803702
1756805818.0505016,0.6871785838791545,-1.868227500700825
1756805818.0507529,0.6871785838791545,-1.9399646237045305
1756805818.051143,0.6871785838791545,-1.945278484667768
1756805818.0523686,0.41786362089056167,-1.945278484667768
1756805818.054466,0.41786362089056167,-2.0063878857449984
1756805818.0546956,0.41786362089056167,-2.1817452975318337
1756805818.0550797,0.41786362089056167,-2.346474987392194
1756805818.0552793,0.41786362089056167,-2.3039640996862945
1756805818.0574255,0.41786362089056167,-2.056869564895754
1756805818.057644,0.41786362089056167,-1.8204027520316883
1756805818.059685,0.41786362089056167,-1.8018042386603572
1756805818.0616329,0.41786362089056167,-1.934650762741293
1756805818.0637598,0.41786362089056167,-2.0037309552633795
1756805818.065552,0.41786362089056167,-1.9001106664802496
1756805818.0694273,0.41786362089056167,-1.7513225595096016
1756805818.069672,0.41786362089056167,-1.7167824632485582
1756805818.0714345,0.41786362089056167,-1.7805487948074075
1756805818.0735986,0.41786362089056167,-1.793833447215501
1756805818.077348,0.41786362089056167,-1.708811671803702
1756805818.0775745,0.41786362089056167,-1.6848992974691337
1756805818.0792947,0.41786362089056167,-1.8655705702192065
1756805818.0812805,0.41786362089056167,-2.1631467841605025
1756805818.0852776,0.41786362089056167,-2.3199056825760067
1756805818.0855014,0.41786362089056167,-2.218942324274496
1756805818.090099,0.41786362089056167,-2.0303002600795668
1756805818.0915425,0.16999294066921047,-2.0303002600795668
1756805818.093388,0.16999294066921047,-2.048898773450898
1756805818.0941377,0.16999294066921047,-2.365073500763525
1756805818.096425,0.16999294066921047,-2.7636130730063324
1756805818.0966425,0.16999294066921047,-2.9230289019034554
1756805818.0982654,0.16999294066921047,-2.7343868377085268
1756805818.099098,0.16999294066921047,-2.4049274579878057
1756805818.1009417,0.16999294066921047,-2.2322269766825893
1756805818.103128,0.16999294066921047,-2.3358472654657194
1756805818.1049387,0.16999294066921047,-2.5590294259216915
1756805818.1067834,0.16999294066921047,-2.662649714704821
1756805818.1088123,0.16999294066921047,-2.5563724954400726
1756805818.1143668,0.16999294066921047,-2.359759639800288
1756805818.1153448,0.16999294066921047,-2.261453211980395
1756805818.1155531,0.16999294066921047,-2.3039640996862945
1756805818.1187634,0.16999294066921047,-2.3996135970245684
1756805818.119294,0.16999294066921047,-2.450095276175324
1756805818.1213143,0.16999294066921047,-2.450095276175324
1756805818.1224835,0.16999294066921047,-2.45806606762018
1756805818.1261165,0.16999294066921047,-2.447438345693705
1756805818.126515,0.16999294066921047,-2.327876474020863
1756805818.1283944,0.16999294066921047,-2.0993804526016535
1756805818.1303816,0.16999294066921047,-1.8894829445537749
1756805818.1325204,0.16999294066921047,-1.8363443349214006
1756805818.1343403,0.16999294066921047,-1.9107383884067246
1756805818.137433,0.16999294066921047,-1.934650762741293
1756805818.138229,0.16999294066921047,-1.7885195862522636
1756805818.1406367,0.16999294066921047,-1.5547097038698166
1756805818.142186,0.16999294066921047,-1.3846661530462188
1756805818.1453638,0.16999294066921047,-1.3315275434138445
1756805818.146132,0.16999294066921047,-1.326213682450607
1756805818.1469,0.08969513920437387,-1.326213682450607
1756805818.148076,0.08969513920437387,-1.289016655707945
1756805818.1501627,0.08969513920437387,-1.2491626984836643
1756805818.1522171,0.08969513920437387,-1.2544765594469016
1756805818.1539817,0.08969513920437387,-1.2943305166711825
1756805818.1560037,0.08969513920437387,-1.3049582385976572
1756805818.1581097,0.08969513920437387,-1.2624473508917577
1756805818.160008,0.08969513920437387,-1.2093087412593835
1756805818.1624875,0.08969513920437387,-1.1800825059615776
1756805818.1639097,0.08969513920437387,-1.1588270621086278
1756805818.1673584,0.08969513920437387,-1.0870899391049225
1756805818.1677234,0.08969513920437387,-0.951586484542368
1756805818.174356,0.08969513920437387,-0.7576305593842018
1756805818.1746058,0.08969513920437387,-0.5105360245936612
1756805818.1748035,0.08969513920437387,-0.24749990691340829
1756805818.175613,0.08969513920437387,-0.04557319031038584
1756805818.1787865,0.08969513920437387,0.04741937654626923
1756805818.179659,0.08969513920437387,0.06601788991760024
1756805818.1815977,0.08969513920437387,0.10852877762349969
1756805818.1850617,0.08969513920437387,0.19886441399853605
1756805818.1855128,0.08969513920437387,0.2413753017044355
1756805818.1874604,0.08969513920437387,0.1404119434029243
1756805818.189836,0.08969513920437387,-0.053543981755241984
1756805818.1912556,0.08969513920437387,-0.17310585342808424
1756805818.193606,0.08969513920437387,-0.11199645235085376
1756805818.1952362,0.08969513920437387,0.023507002211700784
1756805818.19727,0.08969513920437387,0.05539016799112538
1756805818.2093048,0.03660427875500701,0.05539016799112538
1756805818.211086,0.03660427875500701,-0.048230120792004554
1756805818.2113428,0.03660427875500701,-0.13325189620380348
1756805818.2115402,0.03660427875500701,-0.029631607420673542
1756805818.211735,0.03660427875500701,0.22809064929634193
1756805818.212027,0.03660427875500701,0.4193896439728895
1756805818.2139702,0.03660427875500701,0.395477269638321
1756805818.2141757,0.03660427875500701,0.2387183712228168
1756805818.2164404,0.03660427875500701,0.18026590062720504
1756805818.2166464,0.03660427875500701,0.3131124247081408
1756805818.2168422,0.03660427875500701,0.49112676697659485
1756805818.2196765,0.03660427875500701,0.4858129060133574
1756805818.2207131,0.03660427875500701,0.2732584674838601
1756805818.222837,0.03660427875500701,0.08727333377054997
1756805818.2247458,0.03660427875500701,0.13775501292130557
1756805818.2280433,0.03660427875500701,0.37422182578537133
1756805818.2286067,0.03660427875500701,0.5309807242008756
1756805818.233214,0.03660427875500701,0.4193896439728895
1756805818.2334228,0.03660427875500701,0.15369659581101788
1756805818.2346048,0.03660427875500701,0.02882086317493822
1756805818.2365615,0.03660427875500701,0.18026590062720504
1756805818.238545,0.03660427875500701,0.4486158792706954
1756805818.240607,0.03660427875500701,0.5655208204619189
1756805818.2425628,0.03660427875500701,0.4406450878258392
1756805818.2448823,0.03660427875500701,0.24668916266767293
1756805818.2452295,-0.019457836866383353,0.24668916266767293
1756805818.2465158,-0.019457836866383353,0.18292283110882376
1756805818.2484424,-0.019457836866383353,0.2573168845941478
1756805818.2503495,-0.019457836866383353,0.3051416332632847
1756805818.2524502,-0.019457836866383353,0.21746292736986705
1756805818.2576756,-0.019457836866383353,0.05273323750950666
1756805818.2581604,-0.019457836866383353,-0.061514773200098134
1756805818.258364,-0.019457836866383353,-0.0854271475346666
1756805818.2601745,-0.019457836866383353,-0.10933952186923504
1756805818.2632153,-0.019457836866383353,-0.1863905058361778
1756805818.2835798,-0.019457836866383353,-0.24749990691340829
1756805818.283899,-0.019457836866383353,-0.2049890192075088
1756805818.2841766,-0.019457836866383353,-0.07479942560819172
1756805818.284452,-0.019457836866383353,0.0261639326933195
1756805818.2847216,-0.019457836866383353,0.02085007173008207
1756805818.284992,-0.019457836866383353,-0.021660815975817392
1756805818.2853203,-0.019457836866383353,-0.021660815975817392
1756805818.2899137,-0.019457836866383353,0.018193141248463354
1756805818.2907145,-0.019457836866383353,0.004908488840369771
1756805818.290998,-0.019457836866383353,-0.11731031331409118
1756805818.2912934,-0.019457836866383353,-0.2740692117295955
1756805818.294326,-0.019457836866383353,-0.3484632652149195
1756805818.2959194,-0.027460023266659164,-0.3484632652149195
1756805818.2967598,-0.027460023266659164,-0.30860930799063874
1756805818.297092,-0.027460023266659164,-0.24484297643178957
1756805818.299821,-0.027460023266659164,-0.250156837395027
1756805818.300769,-0.027460023266659164,-0.3325216823252072
1756805818.3010926,-0.027460023266659164,-0.43614197110833713
1756805818.3013518,-0.027460023266659164,-0.49990830266718633
1756805818.3015485,-0.027460023266659164,-0.5025652331488051
1756805818.3017445,-0.027460023266659164,-0.446769693034812
1756805818.303426,-0.027460023266659164,-0.3776895005127254
1756805818.305328,-0.027460023266659164,-0.38566029195758156
1756805818.3072789,-0.027460023266659164,-0.5238206770017548
1756805818.3094392,-0.027460023266659164,-0.7151196716783023
1756805818.311395,-0.027460023266659164,-0.7974845166084825
1756805818.3132012,-0.027460023266659164,-0.6885503668621151
1756805818.3449268,-0.027460023266659164,-0.49990830266718633
1756805818.34542,-0.027460023266659164,-0.44411276255319326
1756805818.3456233,-0.027460023266659164,-0.5849300780789852
1756805818.3460853,-0.027460023266659164,-0.773572142273914
1756805818.3463657,-0.027460023266659164,-0.8187399604614322
1756805818.3465614,-0.1090192531295688,-0.8187399604614322
1756805818.346566,-0.1090192531295688,-0.7044919497518274
1756805818.3467617,-0.1090192531295688,-0.6354117572297409
1756805818.347293,-0.1090192531295688,-0.7523166984209643
1756805818.3478067,-0.1090192531295688,-0.9462726235791306
1756805818.3519485,-0.1090192531295688,-0.9861265808034113
1756805818.352171,-0.1090192531295688,-0.8240538214246697
1756805818.3523705,-0.1090192531295688,-0.6912072973437339
1756805818.352568,-0.1090192531295688,-0.8027983775717199
1756805818.3527915,-0.1090192531295688,-1.073805286696829
1756805818.3529882,-0.1090192531295688,-1.2119656717410021
1756805818.3531835,-0.1090192531295688,-1.0658344952519727
1756805818.353381,-0.1090192531295688,-0.8399954043143819
1756805818.353577,-0.1090192531295688,-0.8320246128695258
1756805818.3537743,-0.1090192531295688,-1.0950607305497786
1756805818.3540592,-0.1090192531295688,-1.3580968482300315
1756805818.3555791,-0.1090192531295688,-1.3554399177484129
1756805818.356498,-0.1090192531295688,-1.1322577572924408
1756805818.3587282,-0.1090192531295688,-0.9569003455056054
1756805818.360646,-0.1090192531295688,-0.970184997913699
1756805818.364776,-0.1090192531295688,-1.0605206342887354
1756805818.365399,-0.1090192531295688,-1.0684914257335916
1756805818.366161,-0.1090192531295688,-0.9940973722482674
1756805818.3681414,-0.1090192531295688,-0.9648711369504616
1756805818.370878,-0.1090192531295688,-1.0339513294725482
1756805818.3727548,-0.1090192531295688,-1.1083453829578722
1756805818.3749468,-0.1090192531295688,-1.1136592439211097
1756805818.376006,-0.1090192531295688,-1.0950607305497786
1756805818.377886,-0.1090192531295688,-1.1614839925902467
1756805818.3798614,-0.1090192531295688,-1.3102720995608947
1756805818.3818676,-0.1090192531295688,-1.429833971233737
1756805818.384658,-0.1090192531295688,-1.4351478321969744
1756805818.3862216,-0.1090192531295688,-1.336841404377082
1756805818.3876846,-0.1090192531295688,-1.2279072546307146
1756805818.38964,-0.1090192531295688,-1.1800825059615776
1756805818.3916063,-0.1090192531295688,-1.214622602222621
1756805818.3935547,-0.1090192531295688,-1.2969874471528011
1756805818.3955095,-0.1090192531295688,-1.374038431119744
1756805818.3974812,-0.1090192531295688,-1.3820092225646001
1756805818.3989267,-0.1674391558153262,-1.3820092225646001
1756805818.3995645,-0.1674391558153262,-1.2996443776344198
1756805818.4018404,-0.1674391558153262,-1.2119656717410021
1756805818.4034882,-0.1674391558153262,-1.222593393667477
1756805818.4094267,-0.1674391558153262,-1.3288706129322256
1756805818.4096718,-0.1674391558153262,-1.4245201102704994
1756805818.4098551,-0.1674391558153262,-1.4218631797888808
1756805818.411364,-0.1674391558153262,-1.3527829872667942
1756805818.41337,-0.1674391558153262,-1.3155859605241322
1756805818.4154685,-0.1674391558153262,-1.3208998214873695
1756805818.4175277,-0.1674391558153262,-1.307615169079276
1756805818.4192157,-0.1674391558153262,-1.2305641851123332
1756805818.4235682,-0.1674391558153262,-1.1694547840351028
1756805818.4238195,-0.1674391558153262,-1.203994880296146
1756805818.4254837,-0.1674391558153262,-1.3208998214873695
1756805818.4270484,-0.1674391558153262,-1.400607735935931
1756805818.428943,-0.1674391558153262,-1.3660676396748879
1756805818.4312377,-0.1674391558153262,-1.2597904204101391
1756805818.433092,-0.1674391558153262,-1.2013379498145274
1756805818.4350882,-0.1674391558153262,-1.2438488375204269
1756805818.4385395,-0.1674391558153262,-1.3341844738954631
1756805818.4456902,-0.3462466312421788,-1.3341844738954631
1756805818.455685,-0.3462466312421788,-1.400607735935931
1756805818.4568098,-0.3462466312421788,-1.4032646664175499
1756805818.4573076,-0.3462466312421788,-1.3474691263035568
1756805818.4599843,-0.3462466312421788,-1.2810458642630889
1756805818.4602203,-0.3462466312421788,-1.2597904204101391
1756805818.4816463,-0.3462466312421788,-1.3102720995608947
1756805818.483076,-0.3462466312421788,-1.4085785273807871
1756805818.4833364,-0.3462466312421788,-1.4829725808661112
1756805818.4835384,-0.3462466312421788,-1.48562951134773
1756805818.4838357,-0.3462466312421788,-1.437804762678593
1756805818.4840424,-0.3462466312421788,-1.4032646664175499
1756805818.4842384,-0.3462466312421788,-1.429833971233737
1756805818.4844346,-0.3462466312421788,-1.5015710942374423
1756805818.48463,-0.3462466312421788,-1.5679943562779102
1756805818.4848263,-0.3462466312421788,-1.597220591575716
1756805818.4850223,-0.3462466312421788,-1.560023564833054
1756805818.493647,-0.3462466312421788,-1.477658719902874
1756805818.4939823,-0.3462466312421788,-1.4138923883440246
1756805818.4940023,-0.4301316197140356,-1.4138923883440246
1756805818.4941988,-0.4301316197140356,-1.437804762678593
1756805818.494396,-0.4301316197140356,-1.5467389124249604
1756805818.4945917,-0.4301316197140356,-1.6291037573551406
1756805818.4947906,-0.4301316197140356,-1.5945636610940974
1756805818.4949875,-0.4301316197140356,-1.4696879284580178
1756805818.4951851,-0.4301316197140356,-1.3873230835278374
1756805818.4953823,-0.4301316197140356,-1.4085785273807871
1756805818.4955795,-0.4301316197140356,-1.4643740674947803
1756805818.495784,-0.4301316197140356,-1.4404616931602119
1756805818.4960086,-0.4301316197140356,-1.3448121958219381
1756805818.4962068,-0.4301316197140356,-1.2704181423366139
1756805818.4964025,-0.4301316197140356,-1.2863597252263264
1756805818.4979455,-0.4301316197140356,-1.3421552653403193
1756805818.4998436,-0.4301316197140356,-1.363410709193269
1756805818.5075576,-0.4301316197140356,-1.3607537787116504
1756805818.507795,-0.4301316197140356,-1.411235457862406
1756805818.5079982,-0.4301316197140356,-1.522826538090392
1756805818.5082798,-0.4301316197140356,-1.607848313502191
1756805818.50973,-0.4301316197140356,-1.5679943562779102
1756805818.512062,-0.4301316197140356,-1.4165493188256433
1756805818.5156496,-0.4301316197140356,-1.251819628965283
1756805818.5160117,-0.4301316197140356,-1.1588270621086278
1756805818.5175622,-0.4301316197140356,-1.140228548737297
1756805818.5206091,-0.4301316197140356,-1.137571618255678
1756805818.521599,-0.4301316197140356,-1.0977176610313975
1756805818.5235643,-0.4301316197140356,-1.0153528161012173
1756805818.527508,-0.4301316197140356,-0.9489295540607493
1756805818.5279903,-0.4301316197140356,-0.9781557893585552
1756805818.5294733,-0.4301316197140356,-1.1242869658475845
1756805818.531422,-0.4301316197140356,-1.3129290300425134
1756805818.533468,-0.4301316197140356,-1.4590602065315428
1756805818.5353034,-0.4301316197140356,-1.5015710942374423
1756805818.5372803,-0.4301316197140356,-1.475001789421255
1756805818.5392845,-0.4301316197140356,-1.4431186236418305
1756805818.5412958,-0.4301316197140356,-1.4590602065315428
1756805818.5431828,-0.4301316197140356,-1.5201696076087734
1756805818.5452404,-0.4301316197140356,-1.58924980013086
1756805818.5459318,-0.4588291157701971,-1.58924980013086
1756805818.5472066,-0.4588291157701971,-1.6131621744654283
1756805818.549014,-0.4588291157701971,-1.560023564833054
1756805818.551936,-0.4588291157701971,-1.475001789421255
1756805818.5530088,-0.4588291157701971,-1.4218631797888808
1756805818.5549595,-0.4588291157701971,-1.4245201102704994
1756805818.556861,-0.4588291157701971,-1.4032646664175499
1756805818.5618863,-0.4588291157701971,-1.289016655707945
1756805818.5621157,-0.4588291157701971,-1.1322577572924408
1756805818.562845,-0.4588291157701971,-1.0817760781416852
1756805818.5647218,-0.4588291157701971,-1.2172795327042396
1756805818.5668027,-0.4588291157701971,-1.4059215968991685
1756805818.5686152,-0.4588291157701971,-1.4723448589396364
1756805818.5706987,-0.4588291157701971,-1.392636944491075
1756805818.572826,-0.4588291157701971,-1.3527829872667942
1756805818.5802047,-0.4588291157701971,-1.477658719902874
1756805818.5811849,-0.4588291157701971,-1.6689577145794214
1756805818.581395,-0.4588291157701971,-1.7167824632485582
1756805818.5815914,-0.4588291157701971,-1.5653374257962915
1756805818.5824702,-0.4588291157701971,-1.3793522920829813
1756805818.584618,-0.4588291157701971,-1.3315275434138445
1756805818.5864372,-0.4588291157701971,-1.4324909017153558
1756805818.590845,-0.4588291157701971,-1.5679943562779102
1756805818.5913289,-0.4588291157701971,-1.6556730621713278
1756805818.593554,-0.36422198591471955,-1.6556730621713278
1756805818.6002295,-0.36422198591471955,-1.7061547413220834
1756805818.602296,-0.36422198591471955,-1.7433517680647455
1756805818.6027267,-0.36422198591471955,-1.7725780033625513
1756805818.6035533,-0.36422198591471955,-1.823059682513307
1756805818.6039171,-0.36422198591471955,-1.934650762741293
1756805818.6051736,-0.36422198591471955,-2.0807819392303224
1756805818.6054482,-0.36422198591471955,-2.1578329231972653
1756805818.6074836,-0.36422198591471955,-2.0329571905611856
1756805818.6080313,-0.36422198591471955,-1.77523493384417
1756805818.610075,-0.36422198591471955,-1.597220591575716
1756805818.613056,-0.36422198591471955,-1.6237898963919033
1756805818.61868,-0.36422198591471955,-1.7778918643257888
1756805818.618931,-0.36422198591471955,-1.8655705702192065
1756805818.624509,-0.36422198591471955,-1.7964903776971197
1756805818.624748,-0.36422198591471955,-1.674271575542659
1756805818.6249485,-0.36422198591471955,-1.6237898963919033
1756805818.6251445,-0.36422198591471955,-1.663643853616184
1756805818.6256723,-0.36422198591471955,-1.711468602285321
1756805818.6277196,-0.36422198591471955,-1.7167824632485582
1756805818.6296363,-0.36422198591471955,-1.6981839498772273
1756805818.6457968,-0.23666003915958395,-1.6981839498772273
1756805818.650741,-0.23666003915958395,-1.663643853616184
1756805818.6513488,-0.23666003915958395,-1.58924980013086
1756805818.6515818,-0.23666003915958395,-1.4696879284580178
1756805818.6517825,-0.23666003915958395,-1.3899800140094563
1756805818.6519802,-0.23666003915958395,-1.4245201102704994
1756805818.652177,-0.23666003915958395,-1.5334542600168668
1756805818.652563,-0.23666003915958395,-1.5679943562779102
1756805818.6527865,-0.23666003915958395,-1.4617171370131616
1756805818.652984,-0.23666003915958395,-1.3049582385976572
1756805818.65318,-0.23666003915958395,-1.2730750728182327
1756805818.6550062,-0.23666003915958395,-1.3899800140094563
1756805818.656045,-0.23666003915958395,-1.4989141637558236
1756805818.6567411,-0.23666003915958395,-1.4510894150866867
1756805818.6571302,-0.23666003915958395,-1.2863597252263264
1756805818.6608667,-0.23666003915958395,-1.1800825059615776
1756805818.6615932,-0.23666003915958395,-1.2332211155939519
1756805818.6646774,-0.23666003915958395,-1.3235567519689884
1756805818.6650467,-0.23666003915958395,-1.2757320032998514
1756805818.6674304,-0.23666003915958395,-1.0764622171784477
1756805818.669075,-0.23666003915958395,-0.9223602492445622
1756805818.6709273,-0.23666003915958395,-0.970184997913699
1756805818.6728632,-0.23666003915958395,-1.137571618255678
1756805818.6747515,-0.23666003915958395,-1.222593393667477
1756805818.6768148,-0.23666003915958395,-1.1242869658475845
1756805818.67883,-0.23666003915958395,-0.9754988588769364
1756805818.680728,-0.23666003915958395,-0.9595572759872242
1756805818.6827223,-0.23666003915958395,-1.055206773325498
1756805818.6848898,-0.23666003915958395,-1.0897468695865413
1756805818.6866417,-0.23666003915958395,-0.9409587626158932
1756805818.6909237,-0.23666003915958395,-0.717776602159921
1756805818.6913257,-0.23666003915958395,-0.6194701743400286
1756805818.6948442,0.031142195242257323,-0.6194701743400286
1756805818.6997223,0.031142195242257323,-0.7124627411966835
