1756899354.6766798,417
1756899354.6785924,419
1756899354.6803687,418
1756899354.682516,420
1756899354.6844137,422
1756899354.6862488,417
1756899354.6881888,403
1756899354.690151,389
1756899354.6920002,387
1756899354.6941867,397
1756899354.6962059,403
1756899354.6981783,389
1756899354.700166,360
1756899354.7021368,337
1756899354.7040832,341
1756899354.7060623,366
1756899354.7084777,383
1756899354.709984,374
1756899354.7119522,346
1756899354.7139003,331
1756899354.715836,343
1756899354.7179558,369
1756899354.7199702,385
1756899354.7219405,382
1756899354.7239091,370
1756899354.72577,366
1756899354.7278314,370
1756899354.7300847,371
1756899354.7315967,364
1756899354.733571,356
1756899354.7355611,358
1756899354.7375002,372
1756899354.7394788,384
1756899354.7415433,386
1756899354.7435534,382
1756899354.7455556,389
1756899354.7474988,413
1756899354.7497876,441
1756899354.7514331,451
1756899354.7532382,435
1756899354.7550998,407
1756899354.7571712,386
1756899354.759129,371
1756899354.7610743,348
1756899354.76317,310
1756899354.7649846,277
1756899354.7670598,270
1756899354.7726102,291
1756899354.7796195,317
1756899354.7798166,332
1756899354.7799757,344
1756899354.7801294,365
1756899354.782927,392
1756899354.7831223,408
1756899354.7832808,399
1756899354.7846866,376
1756899354.7867246,360
1756899354.7886581,352
1756899354.7909086,341
1756899354.7927291,318
1756899354.7946951,299
1756899354.7966747,304
1756899354.7986376,330
1756899354.8005972,354
1756899354.802603,353
1756899354.8045397,331
1756899354.8065112,315
1756899354.8084595,320
1756899354.8104184,336
1756899354.8123343,340
1756899354.814239,324
1756899354.8163276,303
1756899354.8183134,302
1756899354.8202527,324
1756899354.8223372,351
1756899354.8241904,361
1756899354.8263955,353
1756899354.8281102,343
1756899354.8300748,345
1756899354.8322637,352
1756899354.8340015,346
1756899354.8364327,315
1756899354.8382366,272
1756899354.8400054,245
1756899354.841891,251
1756899354.8438327,275
1756899354.8458636,285
1756899354.847792,266
1756899354.84973,234
1756899354.8517132,225
1756899354.8535976,250
1756899354.8557138,289
1756899354.8574705,307
1756899354.859808,289
1756899354.8615193,253
1756899354.8638005,232
1756899354.8655248,238
1756899354.8674266,257
1756899354.869397,266
1756899354.8713603,251
1756899354.8733158,221
1756899354.8753004,200
1756899354.877156,202
1756899354.8793738,220
1756899354.8869195,235
1756899354.8875332,237
1756899354.8881226,226
1756899354.8887265,217
1756899354.8893898,216
1756899354.8909984,216
1756899354.8929741,211
1756899354.8949652,204
1756899354.8969746,196
1756899354.898842,186
1756899354.9009364,171
1756899354.902816,156
1756899354.9047704,150
1756899354.90674,155
1756899354.90891,161
1756899354.9106581,155
1756899354.9126654,135
1756899354.9145148,115
1756899354.916661,106
1756899354.9184291,105
1756899354.9205139,102
1756899354.922542,86
1756899354.9245334,64
1756899354.926362,47
1756899354.9283528,44
1756899354.9303238,54
1756899354.9323606,65
1756899354.9344382,70
1756899354.9361107,75
1756899354.9381666,87
1756899354.9409497,113
1756899354.9420066,137
1756899354.944091,143
1756899354.9471452,134
1756899354.9481544,128
1756899354.9499729,140
1756899354.9519436,159
1756899354.9539125,161
1756899354.956008,143
1756899354.9579737,130
1756899354.9598193,147
1756899354.9618392,184
1756899354.9637332,206
1756899354.9652479,197
1756899354.968059,179
1756899354.969179,185
1756899354.971143,217
1756899354.973101,239
1756899354.975067,225
1756899354.9770937,189
1756899354.979012,169
1756899354.9810233,179
1756899354.9836879,195
1756899354.984948,189
1756899354.9869134,161
1756899354.9889188,142
1756899354.9908075,149
1756899354.992809,169
1756899354.9947717,173
1756899354.9967084,158
1756899354.9987268,146
1756899355.0006807,153
1756899355.0025985,171
1756899355.00461,181
1756899355.0065765,177
1756899355.0084429,171
1756899355.0105047,169
1756899355.012672,164
1756899355.014394,150
1756899355.0163956,144
1756899355.0183725,165
1756899355.0202963,204
1756899355.0223148,223
1756899355.0242693,200
1756899355.0261936,159
1756899355.028162,147
1756899355.0301657,177
1756899355.0321112,212
1756899355.0340889,207
1756899355.0360596,161
1756899355.03799,114
1756899355.0399847,97
1756899355.0419576,101
1756899355.0438778,99
1756899355.0458815,84
1756899355.047854,74
1756899355.0497758,81
1756899355.0517843,91
1756899355.053754,80
1756899355.055676,45
1756899355.057671,5
1756899355.0596426,-19
1756899355.0615745,-37
1756899355.0635686,-77
1756899355.0655644,-157
1756899355.0674143,-265
1756899355.0694907,-369
1756899355.0714486,-454
1756899355.073366,-522
1756899355.0754814,-581
1756899355.0773358,-628
1756899355.0792549,-649
1756899355.0812657,-635
1756899355.0831897,-585
1756899355.0854237,-502
1756899355.0871618,-391
1756899355.0891466,-260
1756899355.0910523,-125
1756899355.0930538,-1
1756899355.095028,104
1756899355.0969527,183
1756899355.0989141,233
1756899355.1009264,253
1756899355.1028402,251
1756899355.1048496,241
1756899355.1068184,231
1756899355.10876,219
1756899355.110742,202
1756899355.112712,183
1756899355.1146407,176
1756899355.1167321,186
1756899355.1185143,205
1756899355.1205065,219
1756899355.1225266,222
1756899355.1245077,220
1756899355.126491,215
1756899355.1284423,203
1756899355.1305182,183
1756899355.1323702,160
1756899355.1345243,144
1756899355.1362665,140
1756899355.138457,142
1756899355.1401894,141
1756899355.1422138,134
1756899355.1441169,130
1756899355.1461194,135
1756899355.1481056,147
1756899355.1500165,159
1756899355.1520305,164
1756899355.15399,166
1756899355.1559157,172
1756899355.157912,183
1756899355.159886,194
1756899355.161819,197
1756899355.163806,190
1756899355.165788,176
1756899355.167859,163
1756899355.1696618,154
1756899355.1716914,153
1756899355.1736128,156
1756899355.1755798,159
1756899355.177572,163
1756899355.1795118,170
1756899355.1814556,181
1756899355.183428,188
1756899355.185667,182
1756899355.1873968,164
1756899355.1893694,147
1756899355.1912985,140
1756899355.193291,140
1756899355.1952724,134
1756899355.1971378,121
1756899355.1992013,110
1756899355.2011056,115
1756899355.2030895,133
1756899355.205041,150
1756899355.2070067,158
1756899355.2090547,156
1756899355.210972,149
1756899355.2130008,142
1756899355.214926,132
1756899355.21693,121
1756899355.2188778,113
1756899355.220746,108
1756899355.2228267,107
1756899355.2247555,117
1756899355.2267497,136
1756899355.2287219,154
1756899355.230693,158
1756899355.232613,149
1756899355.2345688,142
1756899355.2365122,145
1756899355.2384696,150
1756899355.2405145,133
1756899355.2424388,97
1756899355.2444384,69
1756899355.2464252,71
1756899355.248299,95
1756899355.250311,112
1756899355.2523105,103
1756899355.2542832,82
1756899355.2561612,69
1756899355.2582064,72
1756899355.2603006,76
1756899355.2620444,69
1756899355.264118,52
1756899355.2660291,36
1756899355.2680557,25
1756899355.2699575,20
1756899355.2719839,22
1756899355.273891,32
1756899355.2758653,50
1756899355.2778366,63
1756899355.2797544,58
1756899355.2817066,36
1756899355.2837238,15
1756899355.286813,11
1756899355.2876456,19
1756899355.2895598,19
1756899355.2917213,-2
1756899355.2935386,-29
1756899355.2955425,-38
1756899355.2974672,-20
1756899355.2994835,7
1756899355.30142,19
1756899355.3033621,8
1756899355.305385,-15
1756899355.3073502,-36
1756899355.3092735,-51
1756899355.311235,-63
1756899355.3132567,-78
1756899355.3150659,-99
1756899355.317121,-130
1756899355.3191414,-160
1756899355.3210647,-168
1756899355.323025,-145
1756899355.325009,-108
1756899355.3269436,-93
1756899355.3289752,-117
1756899355.3309329,-157
1756899355.3329005,-178
1756899355.3348324,-171
1756899355.336763,-162
1756899355.3387694,-175
1756899355.3407588,-197
1756899355.3426986,-202
1756899355.3446932,-185
1756899355.3466547,-166
1756899355.3485744,-164
1756899355.3505297,-169
1756899355.3525524,-166
1756899355.3544843,-154
1756899355.3564448,-149
1756899355.3583958,-161
1756899355.3604202,-181
1756899355.362253,-195
1756899355.3643672,-201
1756899355.3662713,-199
1756899355.3682253,-185
1756899355.3702102,-156
1756899355.372199,-123
1756899355.3741663,-105
1756899355.3761003,-98
1756899355.3781154,-84
1756899355.380038,-48
1756899355.382053,-7
1756899355.3841088,6
1756899355.3858972,-13
1756899355.3878996,-35
1756899355.3898635,-30
1756899355.3918235,-2
1756899355.3939438,21
1756899355.3957856,24
1756899355.3977535,20
1756899355.3997278,31
1756899355.401674,59
1756899355.403612,89
1756899355.405594,109
1756899355.4075978,121
1756899355.4094787,132
1756899355.4115329,143
1756899355.4134545,155
1756899355.4154813,170
1756899355.4174242,193
1756899355.4193587,216
1756899355.4213176,231
1756899355.423314,240
1756899355.425251,253
1756899355.427238,273
1756899355.4292088,295
1756899355.4311788,308
1756899355.4331021,315
1756899355.4351177,325
1756899355.4369602,338
1756899355.4390173,344
1756899355.440908,339
1756899355.4429324,334
1756899355.444883,342
1756899355.4468856,361
1756899355.4489021,377
1756899355.4507947,383
1756899355.452795,385
1756899355.4549165,392
1756899355.4566438,400
1756899355.458668,396
1756899355.4606602,381
1756899355.462544,373
1756899355.4645457,390
1756899355.4664822,420
1756899355.468416,439
1756899355.4704475,433
1756899355.4724233,416
1756899355.4744267,414
1756899355.4763665,433
1756899355.4784245,459
1756899355.480278,472
1756899355.4822567,468
1756899355.484208,454
1756899355.4869244,437
1756899355.4886546,423
1756899355.490148,415
1756899355.4921114,419
1756899355.4940722,434
1756899355.4960654,449
1756899355.4978683,453
1756899355.499969,443
1756899355.5019104,436
1756899355.5038524,442
1756899355.50587,458
1756899355.5078356,472
1756899355.5178788,472
1756899355.5182776,462
1756899355.5184803,447
1756899355.5190597,434
1756899355.5192635,426
1756899355.51946,431
1756899355.5222075,447
1756899355.5240142,463
1756899355.5255442,465
1756899355.5275059,451
1756899355.5294435,440
1756899355.5313823,452
1756899355.533492,482
1756899355.5352726,504
1756899355.5373592,498
1756899355.5392547,469
1756899355.5413852,442
1756899355.5459192,438
1756899355.5469594,457
1756899355.5492415,474
1756899355.5496855,465
1756899355.5533304,429
1756899355.553651,389
1756899355.5651848,380
1756899355.565675,410
1756899355.5658777,448
1756899355.5660748,458
1756899355.5663643,433
1756899355.566563,407
1756899355.5667582,414
1756899355.568806,452
1756899355.5707133,483
1756899355.572872,479
1756899355.5745876,449
1756899355.5765347,426
1756899355.5784962,428
1756899355.5804985,444
1756899355.5842366,449
1756899355.584453,440
1756899355.5866215,433
1756899355.58836,438
1756899355.5904055,447
1756899355.5923488,444
1756899355.594779,428
1756899355.596399,411
1756899355.600031,407
1756899355.628639,414
1756899355.6310341,420
1756899355.6373107,422
1756899355.6383107,426
1756899355.6385388,433
1756899355.638781,436
1756899355.639054,428
1756899355.6393116,418
1756899355.6397774,420
1756899355.6401055,435
1756899355.6403997,439
1756899355.6406002,414
1756899355.6407957,373
1756899355.6409988,347
1756899355.6414053,353
1756899355.6416028,373
1756899355.6418056,380
1756899355.6423361,369
1756899355.6425805,358
1756899355.6428344,363
1756899355.6430316,374
1756899355.6432884,376
1756899355.64434,372
1756899355.6459599,378
1756899355.6488593,394
1756899355.6492803,402
1756899355.651233,384
1756899355.6582904,357
1756899355.6584313,353
1756899355.658508,386
1756899355.6591687,427
1756899355.6611562,437
1756899355.6644657,411
1756899355.664813,382
1756899355.666932,382
1756899355.669053,408
1756899355.670875,432
1756899355.6729612,436
1756899355.6757972,428
1756899355.6769252,420
1756899355.678908,413
1756899355.680862,404
1756899355.6828794,394
1756899355.684712,389
1756899355.6865754,390
1756899355.6885514,388
1756899355.6919405,382
1756899355.6925013,382
1756899355.694481,397
1756899355.6963484,418
1756899355.6982915,431
1756899355.7003202,433
1756899355.7027164,437
1756899355.7047842,449
1756899355.7066212,456
1756899355.7083251,442
1756899355.7101011,411
1756899355.712026,382
1756899355.7141407,369
1756899355.7160168,365
1756899355.7180083,354
1756899355.7256238,337
1756899355.7267313,331
1756899355.727057,344
1756899355.7272592,366
1756899355.7278292,380
1756899355.7303815,381
1756899355.7318575,381
1756899355.7339559,390
1756899355.735748,400
1756899355.7377253,400
1756899355.739643,389
1756899355.7415593,382
1756899355.7435617,389
1756899355.7455325,400
1756899355.7475445,394
1756899355.749621,369
1756899355.7519968,347
1756899355.7534547,350
1756899355.755639,371
1756899355.7582223,383
1756899355.7593668,371
1756899355.761483,353
1756899355.7632518,359
1756899355.7653775,385
1756899355.7671626,402
1756899355.7694747,392
1756899355.7712848,372
1756899355.7734435,373
1756899355.7790036,400
1756899355.7841423,422
1756899355.7843714,420
1756899355.784575,410
1756899355.7847726,420
1756899355.7889674,446
1756899355.7894042,457
1756899355.7896726,431
1756899355.7908132,390
1756899355.7933822,372
1756899355.7948275,383
1756899355.7967746,392
1756899355.7986224,372
1756899355.8058863,337
1756899355.8065112,325
1756899355.8067698,348
1756899355.8069763,376
1756899355.8086648,378
1756899355.8104405,354
1756899355.8129673,333
1756899355.8146608,333
1756899355.8163557,345
1756899355.818434,346
1756899355.821387,334
1756899355.82246,323
1756899355.82434,320
1756899355.826384,316
1756899355.8282452,300
1756899355.830394,278
1756899355.832177,263
1756899355.834329,263
1756899355.836112,270
1756899355.8379562,262
1756899355.8399234,231
1756899355.841885,186
1756899355.8440096,154
1756899355.8458705,154
1756899355.847962,181
1756899355.8567977,206
1756899355.8572867,205
1756899355.8577535,183
1756899355.8587236,172
1756899355.8591733,191
1756899355.8604593,227
1756899355.8615222,252
1756899355.8635292,252
1756899355.8654845,241
1756899355.8674188,238
1756899355.869556,242
1756899355.8713377,240
1756899355.8735034,228
1756899355.8752396,221
1756899355.878565,229
1756899355.8793032,244
1756899355.8814127,250
1756899355.884,245
1756899355.8854632,243
1756899355.88773,259
1756899355.8898547,290
1756899355.8910236,321
1756899355.89451,342
1756899355.89495,355
1756899355.8969293,360
1756899355.9223976,355
1756899355.9226584,341
1756899355.9228563,325
1756899355.9230533,321
1756899355.9232485,327
1756899355.9234452,331
1756899355.9236395,319
1756899355.923838,295
1756899355.9240317,279
1756899355.924254,288
1756899355.9244514,320
1756899355.9246466,352
1756899355.924842,364
1756899355.925038,361
1756899355.9286492,361
1756899355.9290025,375
1756899355.930363,394
1756899355.9336023,399
1756899355.9367864,386
1756899355.937255,372
1756899355.9381955,375
1756899355.940169,387
1756899355.942159,389
1756899355.9441023,370
1756899355.9460595,350
1756899355.9517052,352
1756899355.9519951,376
1756899355.952256,396
1756899355.9538932,387
1756899355.957787,351
1756899355.9583561,317
1756899355.9598904,313
1756899355.962589,337
1756899355.9667647,362
1756899355.9669929,368
1756899355.9680684,351
1756899355.9710767,331
1756899355.9715726,328
1756899355.9736226,346
1756899355.9755409,369
1756899355.9774563,372
1756899355.9802296,346
1756899355.9814022,302
1756899355.9834504,266
1756899355.9853735,256
1756899355.9873943,266
1756899355.9893613,271
1756899355.9934099,254
1756899355.9936366,222
1756899355.9957123,193
1756899355.9972548,175
1756899355.999127,150
1756899356.0061908,99
1756899356.0064254,21
1756899356.006623,-67
1756899356.0070083,-151
1756899356.009578,-233
1756899356.0109808,-315
1756899356.013031,-377
1756899356.0150206,-391
1756899356.016859,-347
1756899356.0187268,-265
1756899356.0207486,-171
1756899356.025263,-67
1756899356.025538,65
1756899356.0267384,221
1756899356.0286255,363
1756899356.0312607,457
1756899356.0328646,502
1756899356.0345237,530
1756899356.036587,562
1756899356.0384617,583
1756899356.040388,569
1756899356.0424821,526
1756899356.0443869,484
1756899356.0463417,466
1756899356.0513718,463
1756899356.0516338,456
1756899356.0521874,441
1756899356.0542228,430
1756899356.0561938,427
1756899356.061049,419
1756899356.0616302,397
1756899356.0620577,376
1756899356.0645406,379
1756899356.0660398,405
1756899356.067946,427
1756899356.0699208,420
1756899356.0718803,392
1756899356.0740962,372
1756899356.0757787,378
1756899356.0777576,397
1756899356.0797713,405
1756899356.0817544,388
1756899356.0836997,356
1756899356.0856674,323
1756899356.0875866,297
1756899356.089628,282
1756899356.0945296,280
1756899356.0947785,281
1756899356.0954344,274
1756899356.0974462,255
1756899356.099489,236
1756899356.1012962,236
1756899356.104383,252
1756899356.1052365,264
1756899356.1072876,257
1756899356.1121001,241
1756899356.1123548,239
1756899356.113126,253
1756899356.1151536,266
1756899356.1170301,263
1756899356.1190913,253
1756899356.1210208,253
1756899356.1229784,263
1756899356.1249764,265
1756899356.126948,250
1756899356.1290581,234
1756899356.1308463,233
1756899356.1331272,246
1756899356.1355214,254
1756899356.13694,247
1756899356.1387787,235
1756899356.1407778,232
1756899356.1425688,242
1756899356.1463804,256
1756899356.1464899,261
1756899356.1490755,250
1756899356.1521568,226
1756899356.152524,199
1756899356.1543913,185
1756899356.1566854,189
1756899356.1584885,202
1756899356.160438,201
1756899356.1631062,176
1756899356.1641688,143
1756899356.1663322,126
1756899356.1682053,134
1756899356.1700947,149
1756899356.171956,149
1756899356.1743052,131
1756899356.1782193,108
1756899356.1787624,92
1756899356.1799767,79
1756899356.1819792,68
1756899356.183974,62
1756899356.1859484,64
1756899356.1882682,69
1756899356.1898599,63
1756899356.191816,45
1756899356.1941137,30
1756899356.1957517,33
1756899356.1977088,52
1756899356.2033746,60
1756899356.2228303,44
1756899356.223674,16
1756899356.224945,1
1756899356.2256339,7
1756899356.225855,19
1756899356.2260528,18
1756899356.2289126,7
1756899356.229161,1
1756899356.2317832,4
1756899356.2320342,7
1756899356.2322633,6
1756899356.2324605,1
1756899356.232658,-6
1756899356.2328572,-19
1756899356.233055,-37
1756899356.2332518,-52
1756899356.2339518,-54
1756899356.235086,-49
1756899356.237206,-52
1756899356.2421048,-63
1756899356.2423356,-69
1756899356.2452312,-61
1756899356.2454617,-57
1756899356.246735,-73
1756899356.2511253,-106
1756899356.2513902,-130
1756899356.2527173,-132
1756899356.254788,-125
1756899356.256731,-131
1756899356.2611854,-150
1756899356.2614326,-163
1756899356.2625284,-158
1756899356.264427,-145
1756899356.2665267,-142
1756899356.268411,-150
1756899356.2707696,-162
1756899356.2723408,-171
1756899356.2782397,-183
1756899356.279402,-201
1756899356.2796166,-219
1756899356.2802007,-225
1756899356.2822316,-220
1756899356.2842276,-215
1756899356.2862058,-220
1756899356.288137,-233
1756899356.29008,-244
1756899356.292018,-243
1756899356.294034,-228
1756899356.3019125,-208
1756899356.3029385,-199
1756899356.3031416,-206
1756899356.3033373,-218
1756899356.3049893,-219
1756899356.311236,-203
1756899356.3258946,-180
1756899356.3268251,-169
1756899356.3270314,-170
1756899356.327729,-171
1756899356.3279285,-159
1756899356.32862,-133
1756899356.3288472,-105
1756899356.3297327,-88
1756899356.3311164,-82
1756899356.3313255,-80
1756899356.3317573,-70
1756899356.3319566,-48
1756899356.3321872,-22
1756899356.3347871,-8
1756899356.335577,-14
1756899356.337356,-30
1756899356.339217,-31
1756899356.3412445,-7
1756899356.3432596,28
1756899356.346245,50
1756899356.3471396,54
1756899356.3634276,57
1756899356.3680708,73
1756899356.368316,93
1756899356.3685164,100
1756899356.3687112,93
1756899356.3689313,91
1756899356.369417,107
1756899356.3696196,127
1756899356.369815,127
1756899356.3700113,102
1756899356.3702073,82
1756899356.3712542,95
1756899356.3726504,135
1756899356.3745959,168
1756899356.3765378,169
1756899356.3785017,146
1756899356.380534,126
1756899356.3824437,130
1756899356.3844306,152
1756899356.3864205,174
1756899356.3890831,182
1756899356.3940089,172
1756899356.3942358,156
1756899356.394433,149
1756899356.396146,162
1756899356.3983169,183
1756899356.4006302,194
1756899356.4077888,182
1756899356.408026,163
1756899356.408235,157
1756899356.4084313,169
1756899356.4104154,178
1756899356.4119072,170
1756899356.414349,160
1756899356.4160209,169
1756899356.4178932,199
1756899356.4198282,224
1756899356.421816,217
1756899356.42382,187
1756899356.4256022,171
1756899356.4279578,188
1756899356.429618,224
1756899356.4320903,246
1756899356.4343388,244
1756899356.4358475,233
1756899356.4375057,234
1756899356.4395084,248
1756899356.4416332,259
1756899356.4515786,255
1756899356.4521086,241
1756899356.4543958,229
1756899356.4546785,223
1756899356.4549298,221
1756899356.4551506,218
1756899356.4553504,217
1756899356.4573646,219
1756899356.4618168,226
1756899356.462365,237
1756899356.4636316,256
1756899356.4649546,279
1756899356.4669003,296
1756899356.4689326,296
1756899356.47094,280
1756899356.4729578,259
1756899356.4749277,249
1756899356.4767926,249
1756899356.478723,254
1756899356.4807193,260
1756899356.4827766,270
1756899356.4846165,285
1756899356.4867167,297
1756899356.5083325,299
1756899356.513759,295
1756899356.5146136,300
1756899356.516973,320
1756899356.5172546,340
1756899356.517537,339
1756899356.518083,318
1756899356.519829,302
1756899356.5200353,314
1756899356.5202317,352
1756899356.5204358,390
1756899356.521187,406
1756899356.5214753,399
1756899356.521676,388
1756899356.5218995,392
1756899356.5245256,410
1756899356.5253706,430
1756899356.5260732,441
1756899356.526411,438
1756899356.5266085,423
1756899356.5278795,408
1756899356.5298657,403
1756899356.531788,412
1756899356.5341763,424
1756899356.536892,422
1756899356.5382318,404
1756899356.5398283,390
1756899356.5415637,398
1756899356.5516746,425
1756899356.5546978,444
1756899356.554936,434
1756899356.555286,412
1756899356.5555282,406
1756899356.5557275,428
1756899356.555935,456
1756899356.5596137,465
1756899356.5599267,456
1756899356.5614545,450
1756899356.5632873,458
1756899356.5655158,467
1756899356.5722277,460
1756899356.5738852,449
1756899356.574335,453
1756899356.5745351,473
1756899356.5753376,487
1756899356.5773284,475
1756899356.5789895,451
1756899356.5809205,443
1756899356.5833538,454
1756899356.5848467,463
1756899356.5868835,448
1756899356.5888486,422
1756899356.5907936,419
1756899356.5927575,452
1756899356.6223378,495
1756899356.6274273,516
1756899356.6281426,506
1756899356.6284232,484
1756899356.6286976,471
1756899356.6290054,474
1756899356.6304135,482
1756899356.6306465,485
1756899356.6308756,480
1756899356.6310964,464
1756899356.6320546,444
1756899356.6323252,434
1756899356.6333642,448
1756899356.6335967,484
1756899356.6342072,514
1756899356.6345701,513
1756899356.6347942,484
1756899356.6350248,457
1756899356.6352434,458
1756899356.6354992,483
1756899356.6357486,502
1756899356.635983,498
1756899356.637953,481
1756899356.6402516,474
1756899356.6547902,485
1756899356.6551442,501
1756899356.6554883,508
1756899356.6556995,506
1756899356.6558957,505
1756899356.6561015,509
1756899356.6562967,508
1756899356.6565053,495
1756899356.6583445,483
1756899356.661421,485
1756899356.661787,505
1756899356.6636794,524
1756899356.6655533,525
1756899356.6685362,508
1756899356.6694465,491
1756899356.671496,490
1756899356.6733735,500
1756899356.6753497,507
1756899356.6773207,502
1756899356.6792557,492
1756899356.681209,485
1756899356.6832082,485
1756899356.6851385,489
1756899356.6871076,495
1756899356.689053,504
1756899356.6927426,511
1756899356.6930945,509
1756899356.6949623,488
1756899356.700773,457
1756899356.7023313,432
1756899356.7255402,426
1756899356.7360253,437
1756899356.7380736,454
1756899356.7393754,466
1756899356.7397795,470
1756899356.7416627,469
1756899356.7420115,466
1756899356.7424865,474
1756899356.7426922,498
1756899356.7428896,526
1756899356.743764,537
1756899356.744052,522
1756899356.7443159,500
1756899356.7445834,499
1756899356.745643,519
1756899356.745846,530
1756899356.7464077,513
1756899356.7469177,482
1756899356.74728,467
1756899356.747483,472
1756899356.7477827,475
1756899356.7500587,458
1756899356.7541716,438
1756899356.754504,435
1756899356.754715,442
1756899356.754914,435
1756899356.755111,412
1756899356.755307,399
1756899356.755979,411
1756899356.7578862,423
1756899356.7603576,404
1756899356.7628882,358
1756899356.763835,329
1756899356.7658045,342
1756899356.7677689,370
1756899356.772355,368
1756899356.772593,327
1756899356.7736106,290
1756899356.7756143,293
1756899356.777532,331
1756899356.7795439,362
1756899356.7851605,359
1756899356.7904904,333
1756899356.790702,316
1756899356.7909012,322
1756899356.791098,337
1756899356.7952797,339
1756899356.795537,322
1756899356.7957401,302
1756899356.797193,298
1756899356.799187,310
1756899356.8040242,324
1756899356.8078427,323
1756899356.8080857,310
1756899356.8082867,300
1756899356.8089395,302
1756899356.812309,310
1756899356.8128414,312
1756899356.8149724,307
1756899356.8167825,305
1756899356.8187182,314
1756899356.8208113,330
1756899356.8227775,341
1756899356.824652,347
1756899356.8266528,356
1756899356.8287272,374
1756899356.8310523,396
1756899356.8326216,410
1756899356.8345358,413
1756899356.8371954,411
1756899356.8462658,410
1756899356.8465157,408
1756899356.8467956,401
1756899356.8470023,388
1756899356.8471975,381
1756899356.8483016,387
1756899356.8548872,399
1756899356.855301,405
1756899356.856031,402
1756899356.8562574,401
1756899356.8581445,413
1756899356.8601525,430
1756899356.8631027,437
1756899356.8640487,431
1756899356.8664417,421
1756899356.8678973,419
1756899356.8699422,424
1756899356.875098,424
1756899356.8759117,418
1756899356.8761535,415
1756899356.877887,424
1756899356.8799434,437
1756899356.8819172,442
1756899356.8836846,431
1756899356.8857355,412
1756899356.8875906,400
1756899356.8897324,400
1756899356.8914568,409
1756899356.893485,415
1756899356.8954015,407
1756899356.8975756,388
1756899356.9025028,370
1756899356.9032266,365
1756899356.9034915,376
1756899356.9067647,390
1756899356.912933,392
1756899356.9147294,379
1756899356.9162402,361
1756899356.9165957,351
1756899356.9176478,355
1756899356.9178524,363
1756899356.9190538,359
1756899356.920994,337
1756899356.9229639,306
1756899356.924932,281
1756899356.9268982,270
1756899356.928881,262
1756899356.9311209,237
1756899356.9327884,189
1756899356.93472,128
1756899356.937011,65
1756899356.9387248,1
1756899356.9628246,-73
1756899356.9631605,-159
1756899356.9633796,-248
1756899356.9635823,-324
1756899356.9637818,-376
1756899356.9639812,-401
1756899356.96419,-396
1756899356.964559,-352
1756899356.9647744,-268
1756899356.9649718,-154
1756899356.9651687,-28
1756899356.9653645,92
1756899356.9655955,199
1756899356.9665196,292
1756899356.968177,377
1756899356.970089,451
1756899356.972221,504
1756899356.9815245,526
1756899356.981923,514
1756899356.9821465,480
1756899356.982344,443
1756899356.9825377,416
1756899356.9838855,399
1756899356.985865,391
1756899356.9878612,386
1756899356.9903657,381
1756899356.9918797,374
1756899356.9937112,361
1756899356.995704,347
1756899356.9976535,337
1756899357.0002174,332
1756899357.0042746,323
1756899357.00454,309
1756899357.005613,293
1756899357.007677,282
1756899357.0136547,282
1756899357.0138829,292
1756899357.0140798,306
1756899357.0158415,319
1756899357.0175157,326
1756899357.0192542,328
1756899357.0214298,326
1756899357.0232556,326
1756899357.0251398,326
1756899357.0271504,320
1756899357.0290997,305
1756899357.0310545,286
1756899357.0330868,274
1756899357.0350263,273
1756899357.036956,276
1756899357.0390332,273
1756899357.0408924,266
1756899357.0429118,263
1756899357.044861,265
1756899357.0469131,269
1756899357.0499194,266
1756899357.051289,254
1756899357.0547547,240
1756899357.0549927,230
1756899357.0566666,225
1756899357.0585992,219
1756899357.0605435,213
1756899357.0627272,211
1756899357.0644946,220
1756899357.0664458,238
1756899357.068484,256
1756899357.0705156,259
1756899357.0724053,249
1756899357.0744035,238
1756899357.0765934,241
1756899357.0815756,254
1756899357.0819743,264
1756899357.0823884,256
1756899357.0841968,243
1756899357.0861561,240
1756899357.0881784,249
1756899357.0900583,252
1756899357.0921586,236
1756899357.0980928,216
1756899357.0983257,216
1756899357.098523,240
1756899357.0999165,263
1756899357.1018755,262
1756899357.1068788,243
1756899357.1071467,231
1756899357.107793,239
1756899357.1100621,250
1756899357.1118658,244
1756899357.1136923,224
1756899357.1552691,211
1756899357.1588807,213
1756899357.161341,219
1756899357.174783,210
1756899357.1750119,191
1756899357.1755567,185
1756899357.1761675,199
1756899357.17638,221
1756899357.1765776,232
1756899357.1767728,231
1756899357.1769702,233
1756899357.1771665,241
1756899357.1790948,238
1756899357.1793244,215
1756899357.1795347,186
1756899357.179743,177
1756899357.1799512,188
1756899357.1801584,191
1756899357.1804142,166
1756899357.1806247,128
1756899357.1808345,109
1756899357.1811361,125
1756899357.1813548,153
1756899357.1817124,167
1756899357.1822293,162
1756899357.1841083,152
1756899357.1844823,147
1756899357.1847508,148
1756899357.184992,151
1756899357.1852014,158
1756899357.1854348,162
1756899357.1856458,150
1756899357.185854,118
1756899357.186062,80
1756899357.1862721,61
1756899357.1865842,62
1756899357.1873724,62
1756899357.1886523,43
1756899357.1904514,11
1756899357.1923118,-13
1756899357.1945198,-21
1756899357.1962042,-23
1756899357.1981938,-31
1756899357.2011082,-40
1756899357.2221167,-41
1756899357.2226064,-35
1756899357.2252853,-31
1756899357.266428,-36
1756899357.2735157,-45
1756899357.2737553,-49
1756899357.2739503,-50
1756899357.274146,-56
1756899357.2744439,-66
1756899357.2747753,-73
1756899357.27498,-72
1756899357.2751746,-64
1756899357.275368,-56
1756899357.2755897,-55
1756899357.2757864,-60
1756899357.2759862,-68
1756899357.276185,-74
1756899357.2763805,-75
1756899357.2766,-74
1756899357.2767944,-69
1756899357.2769878,-62
1756899357.2771833,-58
1756899357.277379,-58
1756899357.2775748,-54
1756899357.277772,-35
1756899357.2779667,4
1756899357.2781627,46
1756899357.2783577,68
1756899357.2785528,61
1756899357.27887,46
1756899357.2790701,55
1756899357.279267,89
1756899357.2794623,118
1756899357.2796557,117
1756899357.2798493,96
1756899357.2800438,85
1756899357.2802382,100
1756899357.2804327,124
1756899357.2806282,135
1756899357.2808394,143
1756899357.2810485,165
1756899357.284167,202
1756899357.2846458,229
1756899357.2868192,231
1756899357.289298,225
1756899357.2911398,235
1756899357.2924104,263
1756899357.2957668,286
1756899357.2975097,291
1756899357.2982185,290
1756899357.3023324,302
1756899357.3051133,324
1756899357.3056886,341
1756899357.3061416,347
1756899357.3139741,352
1756899357.314081,364
1756899357.3141263,372
1756899357.3141713,360
1756899357.3162704,335
1756899357.3179648,318
1756899357.3199365,321
1756899357.3218863,332
1756899357.3240578,332
1756899357.325929,315
1756899357.3284602,300
1756899357.330364,306
1756899357.3316472,330
1756899357.333668,357
1756899357.33585,371
1756899357.3392205,368
1756899357.339507,363
1756899357.3415422,371
1756899357.3434665,396
1756899357.345467,422
1756899357.3474107,427
1756899357.3493145,411
1756899357.3513362,394
1756899357.3547246,398
1756899357.3552074,423
1756899357.3571982,438
1756899357.3606663,422
1756899357.3611476,383
1756899357.3649387,357
1756899357.365044,360
1756899357.3696234,377
1756899357.3697839,378
1756899357.370963,355
1756899357.3729115,334
1756899357.3748956,339
1756899357.3771613,368
1756899357.379782,393
1756899357.3809588,394
1756899357.3827696,377
1756899357.3847253,364
1756899357.3867157,370
1756899357.3886945,383
1756899357.3907783,384
1756899357.393257,367
1756899357.3965445,342
1756899357.3969173,322
1756899357.3986528,316
1756899357.4004993,318
1756899357.4034202,318
1756899357.4044693,313
1756899357.4064748,307
1756899357.4084203,305
1756899357.4104314,309
1756899357.4123955,315
1756899357.4147663,321
1756899357.4161627,328
1756899357.4181662,338
1756899357.4206142,350
1756899357.4222038,361
1756899357.4240212,363
1756899357.4261112,355
1756899357.4281006,338
1756899357.430114,319
1756899357.434379,309
1756899357.4344997,311
1756899357.435841,312
1756899357.437789,301
1756899357.4398158,273
1756899357.4418237,243
1756899357.4450479,229
1756899357.44569,244
1756899357.44802,275
1756899357.4503667,300
1756899357.4515676,297
1756899357.4536345,272
1756899357.455495,249
1756899357.4574838,250
1756899357.4596674,269
1756899357.461368,275
1756899357.463499,252
1756899357.4653358,214
1756899357.4674113,185
1756899357.4695106,173
1756899357.4738793,165
1756899357.4740326,152
1756899357.4773011,142
1756899357.477442,143
1756899357.479107,146
1756899357.4812846,139
1756899357.4836557,127
1756899357.4851189,129
1756899357.486993,148
1756899357.4889808,164
1756899357.491085,154
1756899357.4929936,131
1756899357.4948525,125
1756899357.4969182,143
1756899357.498858,161
1756899357.500986,152
1756899357.5072587,129
1756899357.5074067,122
1756899357.5075614,140
1756899357.5095499,157
1756899357.510537,150
1756899357.513191,127
1756899357.5144887,113
1756899357.5193114,120
1756899357.520697,129
1756899357.5213675,121
1756899357.5222938,102
1756899357.524319,92
1756899357.526318,96
1756899357.5282357,103
1756899357.5302658,102
1756899357.5322638,94
1756899357.534277,86
1756899357.5363033,79
1756899357.53835,69
1756899357.540281,60
1756899357.543336,56
1756899357.5440016,54
1756899357.5461965,44
1756899357.5480294,24
1756899357.5499253,7
1756899357.5519814,5
1756899357.5575588,14
1756899357.5576694,19
1756899357.557737,11
1756899357.55979,-1
1756899357.561747,-2
1756899357.5636892,9
1756899357.5656993,22
1756899357.5678265,31
1756899357.5696692,37
1756899357.5717435,41
1756899357.5735629,41
1756899357.5762336,36
1756899357.5774796,37
1756899357.5796478,52
1756899357.585518,74
1756899357.585636,86
1756899357.5857182,84
1756899357.5872226,82
1756899357.5891764,92
1756899357.5911875,111
1756899357.5930676,123
1756899357.6015866,120
1756899357.6019564,111
1756899357.602036,106
1756899357.6021209,99
1756899357.6030202,82
1756899357.6071374,58
1756899357.607816,42
1756899357.608898,39
1756899357.6111386,44
1756899357.613706,49
1756899357.615066,52
1756899357.624518,60
1756899357.624615,74
1756899357.6246839,89
1756899357.6247509,100
1756899357.6248174,106
1756899357.6265354,110
1756899357.628518,108
1756899357.630498,98
1756899357.6324952,86
1756899357.6348603,77
1756899357.6363611,74
1756899357.6382506,73
1756899357.6402488,72
1756899357.6421814,73
1756899357.644136,83
1756899357.6461484,97
1756899357.648115,103
1756899357.6501675,97
1756899357.6520386,92
1756899357.6555436,104
1756899357.6560216,133
1756899357.658846,159
1756899357.6598954,164
1756899357.6620278,153
1756899357.6664476,147
1756899357.6665752,159
1756899357.6677594,181
1756899357.669726,197
1756899357.6717026,198
1756899357.6742258,186
1756899357.6755958,171
1756899357.6795542,159
1756899357.6800764,155
1756899357.6815004,162
1756899357.683487,168
1756899357.686334,155
1756899357.6874025,120
1756899357.6893718,85
1756899357.6913218,80
1756899357.6933444,102
1756899357.69613,121
1756899357.6973107,110
1756899357.6997192,79
1756899357.701271,60
1756899357.7039585,66
1756899357.705176,78
1756899357.7077034,77
1756899357.7091093,64
1756899357.711081,55
1756899357.713591,60
1756899357.7149808,70
1756899357.7170327,77
1756899357.7189794,76
1756899357.7218506,64
1756899357.722877,39
1756899357.7247987,14
1756899357.7267091,8
1756899357.735689,25
1756899357.7357786,36
1756899357.735823,11
1756899357.735867,-39
1756899357.7369244,-68
1756899357.7386723,-48
1756899357.741471,0
1756899357.7428818,26
1756899357.7447188,13
1756899357.7477543,-5
1756899357.7486258,4
1756899357.7510576,39
1756899357.7527716,71
1756899357.7569315,80
1756899357.7571347,76
1756899357.7586887,77
1756899357.7604382,82
1756899357.7623806,80
1756899357.7643645,70
1756899357.7663736,65
1756899357.7686558,75
1756899357.770185,94
1756899357.7722092,108
1756899357.7743747,113
1756899357.776117,118
1756899357.7780385,130
1756899357.7883139,156
1756899357.7889636,190
1756899357.7918375,220
1756899357.7926161,232
1756899357.7933547,224
1756899357.815971,208
1756899357.8161583,205
1756899357.8163154,220
1756899357.8175287,237
1756899357.8180723,239
1756899357.8182385,224
1756899357.81843,211
1756899357.8186336,217
1756899357.818854,235
1756899357.819112,247
1756899357.8422577,242
1756899357.8423665,227
1756899357.8424196,213
1756899357.842472,201
1756899357.8425243,192
1756899357.842575,192
1756899357.8426423,203
1756899357.8426933,214
1756899357.8427453,210
1756899357.8427968,194
1756899357.842848,190
1756899357.842899,216
1756899357.8429518,261
1756899357.8430023,290
1756899357.8430536,284
1756899357.843105,262
1756899357.8431554,261
1756899357.843207,288
1756899357.8452432,317
1756899357.8469205,324
1756899357.8488302,314
1756899357.8506925,312
1756899357.8527358,327
1756899357.8560178,338
1756899357.8597069,326
1756899357.860134,298
1756899357.861309,281
1756899357.862678,285
1756899357.8654463,290
1756899357.8668036,276
1756899357.8694618,245
1756899357.8705182,219
1756899357.8723755,203
1756899357.874842,185
1756899357.8764038,151
1756899357.8786616,109
1756899357.8802285,68
1756899357.8823674,21
1756899357.8843842,-49
1756899357.886324,-141
1756899357.8880124,-234
1756899357.8905303,-311
1756899357.8919399,-379
1756899357.894841,-453
1756899357.8959978,-530
1756899357.8982053,-590
1756899357.900608,-618
1756899357.9018424,-611
1756899357.903783,-573
1756899357.9062183,-494
1756899357.9076843,-369
1756899357.90965,-218
1756899357.9118655,-79
1756899357.9137895,24
1756899357.9165945,100
1756899357.9175727,175
1756899357.9196196,254
1756899357.9214191,320
1756899357.9235523,348
1756899357.9263146,333
1756899357.9273868,294
1756899357.9295185,256
1756899357.9313154,241
1756899357.93338,248
1756899357.9352195,264
1756899357.9373896,272
1756899357.9391427,269
1756899357.9414942,268
1756899357.9430623,286
1756899357.945003,319
1756899357.9469893,348
1756899357.9495447,350
1756899357.9512792,327
1756899357.9529183,299
1756899357.9548793,284
1756899357.956828,283
1756899357.9588337,281
1756899357.9607909,264
1756899357.9628413,235
1756899357.964994,214
1756899357.9667795,217
1756899357.96861,240
1756899357.9706779,263
1756899357.972896,270
1756899357.9753196,264
1756899357.9764745,267
1756899357.9785655,288
1756899357.9804654,312
1756899357.9824026,313
1756899357.984399,285
1756899357.986389,249
1756899357.9882843,230
1756899357.990353,229
1756899358.0128584,228
1756899358.0133142,211
1756899358.0139432,192
1756899358.014428,194
1756899358.0146842,226
1756899358.0148833,263
1756899358.0150783,278
1756899358.0154042,268
1756899358.0157554,252
1756899358.0159526,251
1756899358.016755,259
1756899358.0170736,259
1756899358.0173893,244
1756899358.022111,222
1756899358.022451,213
1756899358.022655,222
1756899358.0304904,239
1756899358.0312417,247
1756899358.0320256,240
1756899358.0328288,225
1756899358.0330594,218
1756899358.0335867,232
1756899358.0355527,261
1756899358.037548,278
1756899358.0394616,259
1756899358.0414312,210
1756899358.043406,173
1756899358.0453591,183
1756899358.0473049,231
1756899358.0492892,268
1756899358.053196,254
1756899358.0535603,203
1756899358.065905,169
1756899358.0662007,183
1756899358.0664012,221
1756899358.066596,238
1756899358.0668259,213
1756899358.067023,171
1756899358.067218,154
1756899358.0789275,171
1756899358.0791757,194
1756899358.0793734,192
1756899358.0795705,163
1756899358.080203,137
1756899358.0806096,142
1756899358.0809114,171
1756899358.082764,190
1756899358.0846217,174
1756899358.0865715,135
1756899358.0885506,105
1756899358.0905013,109
1756899358.0926716,134
1756899358.103444,150
1756899358.103734,137
1756899358.103929,104
1756899358.104459,73
1756899358.1046588,62
1756899358.1048617,66
1756899358.1064482,70
1756899358.1084683,64
1756899358.1103761,48
1756899358.1139073,28
1756899358.1148233,15
1756899358.118838,10
1756899358.1191483,6
1756899358.1201024,-3
1756899358.1283548,-10
1756899358.1285987,-8
1756899358.1298792,0
1756899358.1317399,-4
1756899358.1322846,-31
1756899358.1324947,-72
1756899358.134365,-108
1756899358.1359057,-129
1756899358.137814,-141
1756899358.1396518,-158
1756899358.1416688,-181
1756899358.144692,-200
1756899358.1461244,-211
1756899358.1519642,-211
1756899358.1523716,-203
1756899358.1528358,-185
1756899358.1534262,-163
1756899358.1571436,-151
1756899358.157362,-160
1756899358.159528,-189
1756899358.1612818,-221
1756899358.1632597,-242
1756899358.1652486,-251
1756899358.1673322,-264
1756899358.1695151,-292
1756899358.1710703,-328
1756899358.1732767,-352
1756899358.1750348,-350
1756899358.179933,-328
1756899358.1801596,-306
1756899358.1815877,-293
1756899358.1830952,-285
1756899358.187875,-270
1756899358.188106,-251
1756899358.1888528,-242
1756899358.1909163,-246
1756899358.1938832,-251
1756899358.1947389,-246
1756899358.1966515,-233
1756899358.1986527,-230
1756899358.2007012,-239
1756899358.2040515,-244
1756899358.204544,-226
1756899358.206474,-188
1756899358.208552,-153
1756899358.2104573,-133
1756899358.2124197,-122
1756899358.2143276,-104
1756899358.221033,-77
1756899358.221251,-49
1756899358.2214482,-32
1756899358.2232363,-26
1756899358.2241795,-26
1756899358.2263055,-21
1756899358.2364664,-7
1756899358.2368355,13
1756899358.237291,35
1756899358.2376895,55
1756899358.2389455,74
1756899358.2391505,97
1756899358.2398765,122
1756899358.242027,143
1756899358.2439475,155
1756899358.245967,158
1756899358.2478163,157
1756899358.2497795,161
1756899358.2564914,170
1756899358.2567499,187
1756899358.2616897,207
1756899358.2619696,225
1756899358.2621884,237
1756899358.262385,239
1756899358.2635734,240
1756899358.2664218,243
1756899358.2674198,245
1756899358.2694345,237
1756899358.271484,224
1756899358.2733445,226
1756899358.2760913,255
1756899358.277268,293
1756899358.2790904,311
1756899358.2810335,300
1756899358.283062,291
1756899358.2851367,314
1756899358.2875707,360
1756899358.289431,382
1756899358.290911,347
1756899358.2928598,280
1756899358.295179,240
1756899358.2967656,258
1756899358.2987866,305
1756899358.300747,334
1756899358.3026662,326
1756899358.305628,312
1756899358.3069224,322
1756899358.3135502,352
1756899358.3136835,377
1756899358.3137465,384
1756899358.3145292,386
1756899358.3164845,387
1756899358.3186328,381
1756899358.320366,360
1756899358.3244271,341
1756899358.3246515,348
1756899358.3270264,378
1756899358.3283267,400
1756899358.3307083,393
1756899358.3345408,373
1756899358.3347554,374
1756899358.3361835,403
1756899358.3384855,430
1756899358.340079,426
1756899358.3420863,393
1756899358.3440518,362
1756899358.34607,356
1756899358.3479838,370
1756899358.351725,378
1756899358.352992,368
1756899358.3538768,345
1756899358.3559148,326
1756899358.3738933,324
1756899358.374486,340
1756899358.3750823,361
1756899358.3754902,374
1756899358.375691,375
1756899358.3770921,373
1756899358.3774803,381
1756899358.3776793,397
1756899358.3779323,407
1756899358.378538,404
1756899358.3787389,392
1756899358.3795772,383
1756899358.3815286,384
1756899358.383524,389
1756899358.3855436,390
1756899358.3876212,388
1756899358.3894885,386
1756899358.3912175,383
1756899358.393352,379
1756899358.4000516,379
1756899358.400352,386
1756899358.40055,394
1756899358.401225,392
1756899358.4036412,380
1756899358.404984,373
1756899358.4070127,381
1756899358.4090235,399
1756899358.4108908,411
1756899358.4131036,407
1756899358.4149349,396
1756899358.416856,387
1756899358.4187875,383
1756899358.4209306,377
1756899358.4226878,370
1756899358.4817967,366
1756899358.5061982,370
1756899358.5142925,377
1756899358.5155356,380
1756899358.516079,377
1756899358.5162885,370
1756899358.5164862,358
1756899358.5166824,346
1756899358.5168917,342
1756899358.5172122,350
1756899358.5174127,360
1756899358.51761,357
1756899358.5191565,339
1756899358.5194292,324
1756899358.5225065,327
1756899358.5232942,338
1756899358.5235586,334
1756899358.5253856,312
1756899358.526935,293
1756899358.5272276,296
1756899358.5273874,311
1756899358.527582,311
1756899358.527945,288
1756899358.5283062,265
1756899358.5283937,267
1756899358.528497,292
1756899358.5285475,313
1756899358.5285947,318
1756899358.5286534,316
1756899358.5286996,321
1756899358.528788,329
1756899358.5288367,327
1756899358.528883,316
1756899358.5289292,316
1756899358.5289774,336
1756899358.5295258,364
1756899358.5295746,378
1756899358.529622,371
1756899358.5296702,360
1756899358.5298667,364
1756899358.5299175,378
1756899358.5299647,382
1756899358.530011,364
1756899358.5300577,333
1756899358.5301046,303
1756899358.5301514,284
1756899358.530214,276
1756899358.530261,278
1756899358.5303078,291
1756899358.5306864,307
1756899358.5307367,319
1756899358.5322683,318
1756899358.5342171,309
1756899358.53464,305
1756899358.5346878,307
1756899358.5347307,306
1756899358.5347748,290
1756899358.5366242,264
1756899358.5391715,242
1756899358.540561,235
1756899358.5425265,242
1756899358.5444467,247
1756899358.5464494,246
1756899358.5484185,244
1756899358.550427,246
1756899358.5536675,254
1756899358.554382,260
1756899358.5563128,257
1756899358.5582502,243
1756899358.5608008,222
1756899358.5622327,204
1756899358.564121,200
1756899358.5708528,214
1756899358.57113,237
1756899358.5712209,256
1756899358.5719616,265
1756899358.5739386,269
1756899358.5758812,270
1756899358.577842,268
1756899358.579929,263
1756899358.5840838,261
1756899358.584175,268
1756899358.5858028,281
1756899358.5876787,281
1756899358.5896864,262
1756899358.592053,243
1756899358.5935795,254
1756899358.59556,294
1756899358.5975008,329
1756899358.5996404,319
1756899358.6084697,269
1756899358.6088965,225
1756899358.6093943,228
1756899358.609446,265
1756899358.612046,287
1756899358.6131516,263
1756899358.6136818,215
1756899358.6152887,192
1756899358.6171932,215
1756899358.6192281,255
1756899358.6212583,271
1756899358.6231613,252
1756899358.6251402,226
1756899358.6270757,220
1756899358.6290212,231
1756899358.631036,233
1756899358.6329205,210
1756899358.6348565,181
1756899358.6368084,172
1756899358.6387706,185
1756899358.6408064,192
1756899358.6433053,174
1756899358.644766,141
1756899358.6467578,122
1756899358.648682,131
1756899358.6507456,151
1756899358.6667125,153
1756899358.6669414,135
1756899358.6671019,123
1756899358.6672578,138
1756899358.6674135,172
1756899358.667569,195
1756899358.6677234,189
1756899358.6678755,172
1756899358.6683924,165
1756899358.671864,171
1756899358.6724806,167
1756899358.6744025,137
1756899358.6762605,92
1756899358.6781979,60
1756899358.6800992,58
1756899358.6828623,75
1756899358.6848025,86
1756899358.6867347,83
1756899358.6879609,76
1756899358.68993,84
1756899358.6918716,108
1756899358.6938257,134
1756899358.6958432,147
1756899358.6977615,144
1756899358.7036798,139
1756899358.7124312,147
1756899358.7208524,161
1756899358.721188,163
1756899358.721354,146
1756899358.721545,127
1756899358.721701,131
1756899358.7220929,155
1756899358.722256,173
1756899358.722435,161
1756899358.7224884,136
1756899358.7225397,131
1756899358.723457,159
1756899358.7253013,194
1756899358.7273197,206
1756899358.7292414,196
1756899358.7312267,191
1756899358.7334328,211
1756899358.7350543,246
1756899358.7370298,273
1756899358.7393937,283
1756899358.7469113,281
1756899358.7470925,274
1756899358.7471478,262
1756899358.7472,247
1756899358.7488792,236
1756899358.7512884,236
1756899358.7541754,240
1756899358.7549076,234
1756899358.7568612,217
1756899358.7588243,201
1756899358.761995,202
1756899358.7628357,222
1756899358.7648232,244
1756899358.7667706,248
1756899358.7686768,230
1756899358.7795482,203
1756899358.7796712,192
1756899358.7797503,206
1756899358.7798293,231
1756899358.7799056,243
1756899358.780677,230
1756899358.7824044,210
1756899358.784418,205
1756899358.7863488,219
1756899358.789246,235
1756899358.7922494,236
1756899358.7923212,223
1756899358.7980683,203
1756899358.8036218,181
1756899358.803845,158
1756899358.8040063,137
1756899358.8041613,127
1756899358.8201094,133
1756899358.8212848,143
1756899358.8217037,145
1756899358.8218691,139
1756899358.822025,136
1756899358.8222053,145
1756899358.8223622,159
1756899358.8225172,163
1756899358.822671,142
1756899358.8227837,98
1756899358.8241742,44
1756899358.8256533,-11
1756899358.8282392,-79
1756899358.82963,-176
1756899358.831672,-298
1756899358.8335257,-416
1756899358.8353646,-492
1756899358.8373404,-518
1756899358.8393106,-515
1756899358.8413658,-505
1756899358.8432894,-471
1756899358.8452137,-381
1756899358.847277,-229
1756899358.849282,-56
1756899358.8514583,82
1756899358.8544734,172
1756899358.861055,240
1756899358.8682117,312
1756899358.869374,378
1756899358.869542,411
1756899358.869736,400
1756899358.871466,367
1756899358.8716388,337
1756899358.872688,318
1756899358.872849,300
1756899358.873003,278
1756899358.8749492,257
1756899358.8765898,242
1756899358.878659,231
1756899358.8805816,220
1756899358.882603,207
1756899358.884574,192
1756899358.8865209,170
1756899358.8885636,136
1756899358.8904543,97
1756899358.892421,70
1756899358.8943698,68
1756899358.896591,82
1756899358.8996532,90
1756899358.9001637,81
1756899358.9021459,70
1756899358.904651,81
1756899358.9061172,114
1756899358.9080167,143
1756899358.9102674,144
1756899358.912113,127
1756899358.914035,123
1756899358.9161344,141
1756899358.9180949,157
1756899358.9202504,143
1756899358.9220464,101
1756899358.923921,67
1756899358.9260929,65
1756899358.928047,84
1756899358.9300423,93
1756899358.9320168,80
1756899358.934027,66
1756899358.9358869,77
1756899358.93797,111
1756899358.9396963,142
1756899358.9415965,145
1756899358.943558,121
1756899358.9455655,94
1756899358.9473898,88
1756899358.9493532,104
1756899358.9515066,123
1756899358.9559367,120
1756899358.9561708,88
1756899358.9572492,48
1756899358.9592094,31
1756899358.9612753,46
1756899358.9631977,70
1756899358.965118,75
1756899358.967142,55
1756899358.969064,30
1756899358.9709287,22
1756899358.972901,37
1756899358.974857,61
1756899358.9778368,75
1756899358.9791107,73
1756899358.9808578,64
1756899358.9828043,56
1756899358.9847634,52
1756899358.9867394,48
1756899358.9886942,42
1756899358.9906628,39
1756899358.9926405,40
1756899358.9946444,41
1756899358.9965818,37
1756899358.9992788,29
1756899359.0013788,26
1756899359.0023837,36
1756899359.0044267,56
1756899359.0063493,70
1756899359.0082972,73
1756899359.010519,64
1756899359.0124707,51
1756899359.014781,34
1756899359.01633,16
1756899359.018404,4
1756899359.0202663,5
1756899359.022278,14
1756899359.0242143,15
1756899359.0265203,6
1756899359.0282776,-1
1756899359.0305862,10
1756899359.0322232,31
1756899359.0341895,45
1756899359.036234,42
1756899359.0379004,34
1756899359.0398247,35
1756899359.0419297,41
1756899359.0438042,37
1756899359.0458612,15
1756899359.04778,-15
1756899359.0496967,-37
1756899359.0515726,-47
1756899359.0554879,-55
1756899359.05555,-70
1756899359.0574164,-92
1756899359.0602908,-110
1756899359.0613906,-112
1756899359.064443,-98
1756899359.06785,-83
1756899359.0680575,-83
1756899359.0692508,-102
1756899359.0713658,-123
1756899359.0734198,-129
1756899359.0755897,-124
1756899359.077073,-125
1756899359.0791793,-139
1756899359.08112,-155
1756899359.0831316,-161
1756899359.0852528,-157
1756899359.0871239,-156
1756899359.089083,-159
1756899359.0910466,-152
1756899359.0930028,-133
1756899359.0948963,-121
1756899359.0969627,-133
1756899359.0994895,-163
1756899359.1015093,-182
1756899359.1028655,-182
1756899359.1054423,-180
1756899359.1069293,-201
1756899359.1091366,-241
1756899359.1106265,-272
1756899359.1126523,-274
1756899359.1149428,-257
1756899359.1165507,-240
1756899359.1184807,-232
1756899359.1205022,-224
1756899359.1224134,-209
1756899359.1243603,-193
1756899359.1263747,-184
1756899359.128356,-174
1756899359.1302674,-157
1756899359.1322906,-136
1756899359.1342764,-124
1756899359.13619,-129
1756899359.1381652,-134
1756899359.1401172,-122
1756899359.1422105,-92
1756899359.1445773,-63
1756899359.1468751,-55
1756899359.148138,-59
1756899359.1501455,-54
1756899359.1520123,-29
1756899359.1543102,4
1756899359.1574817,29
1756899359.157746,40
1756899359.1597857,45
1756899359.1618702,54
1756899359.16383,75
1756899359.1657426,109
1756899359.167707,152
1756899359.1705594,198
1756899359.1716082,229
1756899359.1736562,234
1756899359.1754858,221
1756899359.1774049,214
1756899359.1793764,231
1756899359.181603,266
1756899359.1846123,292
1756899359.1855173,290
1756899359.1878414,267
1756899359.1895704,251
1756899359.1913426,268
1756899359.1935449,315
1756899359.1951745,367
1756899359.1973002,397
1756899359.1996944,398
1756899359.2010736,392
1756899359.203948,406
1756899359.2059755,441
1756899359.2071683,469
1756899359.2092397,460
1756899359.2115738,422
1756899359.2129452,393
1756899359.2149274,399
1756899359.21695,428
1756899359.2191834,446
1756899359.220878,443
1756899359.2228298,443
1756899359.2247562,467
1756899359.2271338,503
1756899359.228794,514
1756899359.2306225,488
1756899359.2327144,452
1756899359.234636,443
1756899359.2368753,459
1756899359.2384748,470
1756899359.2404964,455
1756899359.242385,430
1756899359.258565,426
1756899359.2600336,450
1756899359.2610776,479
1756899359.2612836,486
1756899359.2631695,469
1756899359.263353,452
1756899359.2634313,454
1756899359.2635,475
1756899359.2635677,496
1756899359.2636342,504
1756899359.2639658,500
1756899359.2657776,495
1756899359.2677753,497
1756899359.2699468,506
1756899359.2718832,519
1756899359.2739007,532
1756899359.2756798,545
1756899359.2844455,553
1756899359.2848125,551
1756899359.2850091,546
1756899359.2850523,544
1756899359.2854972,546
1756899359.2874281,540
1756899359.2893677,522
1756899359.291331,503
1756899359.2933114,502
1756899359.2953103,521
1756899359.2979264,535
1756899359.3004117,518
1756899359.3011267,474
1756899359.3032877,436
1756899359.3055527,430
1756899359.3071086,448
1756899359.3093264,464
1756899359.3111124,463
1756899359.3133745,452
1756899359.3149798,451
1756899359.3169472,464
1756899359.3189168,478
1756899359.320941,479
1756899359.3232787,469
1756899359.3256066,457
1756899359.3270578,445
1756899359.3289459,433
1756899359.3310046,417
1756899359.3329089,401
1756899359.334954,392
1756899359.3366704,397
1756899359.3385806,412
1756899359.340635,424
1756899359.3425221,421
1756899359.3445377,401
1756899359.346433,377
1756899359.3484373,367
1756899359.3505096,376
1756899359.3533542,389
1756899359.354295,389
1756899359.3562915,372
1756899359.362547,353
1756899359.362776,346
1756899359.362937,350
1756899359.3643901,353
1756899359.3664613,353
1756899359.3683014,355
1756899359.370258,363
1756899359.373058,367
1756899359.3741848,353
1756899359.3761687,325
1756899359.3779964,300
1756899359.3798597,294
1756899359.3819218,306
1756899359.3908992,319
1756899359.391014,322
1756899359.3917348,311
1756899359.391881,288
1756899359.3919942,263
1756899359.393864,248
1756899359.3955023,255
1756899359.3974698,278
1756899359.399435,288
1756899359.4027267,265
1756899359.4033208,227
1756899359.4158359,212
1756899359.4159608,237
1756899359.416239,274
1756899359.4165123,282
1756899359.4168007,256
1756899359.41692,232
1756899359.4171696,238
1756899359.419439,262
1756899359.421019,269
1756899359.4229884,254
1756899359.425138,242
1756899359.4272735,249
1756899359.4292781,260
1756899359.4311283,249
1756899359.4331093,226
1756899359.434971,219
1756899359.4370272,236
1756899359.438952,247
1756899359.4409204,230
1756899359.4489715,199
1756899359.4510074,192
1756899359.451364,220
1756899359.451493,250
1756899359.4515908,251
1756899359.4525137,233
1756899359.4570847,226
1756899359.4572845,234
1756899359.4585764,234
1756899359.4605825,209
1756899359.4624352,178
1756899359.4643812,164
1756899359.4663458,166
1756899359.4683437,155
1756899359.4701378,124
1756899359.4722743,103
1756899359.4741545,120
1756899359.476083,162
1756899359.4782455,192
1756899359.4800236,191
1756899359.4820557,174
1756899359.4839108,172
1756899359.4858823,192
1756899359.487832,217
1756899359.4898288,228
1756899359.4918048,218
1756899359.493793,192
1756899359.4957376,164
1756899359.4976816,146
1756899359.499939,144
1756899359.501582,146
1756899359.5036483,131
1756899359.5068743,97
1756899359.5075703,66
1756899359.5098708,66
1756899359.5116253,93
1756899359.513696,111
1756899359.5169575,98
1756899359.518303,68
1756899359.5195515,58
1756899359.521469,82
1756899359.524927,105
1756899359.5254943,94
1756899359.527339,57
1756899359.529311,38
1756899359.531256,55
1756899359.5334353,82
1756899359.5352337,80
1756899359.537308,49
1756899359.539154,31
1756899359.5411747,58
1756899359.5432074,109
1756899359.5451055,132
1756899359.5473175,106
1756899359.5507786,61
1756899359.5607524,44
1756899359.561984,66
1756899359.562292,96
1756899359.5626,96
1756899359.5627599,67
1756899359.5630727,38
1756899359.5632303,37
1756899359.56593,59
1756899359.5667036,78
1756899359.5691173,78
1756899359.5707772,71
1756899359.5725968,72
1756899359.574562,80
1756899359.5764654,74
1756899359.578432,48
1756899359.5805712,23
1756899359.582368,19
1756899359.5842855,32
1756899359.5862503,30
1756899359.5882213,-6
1756899359.5903006,-55
1756899359.5923219,-79
1756899359.6117034,-69
1756899359.6121283,-48
1756899359.6125278,-47
1756899359.6125958,-66
1756899359.613037,-83
1756899359.613124,-83
1756899359.613497,-69
1756899359.615855,-55
1756899359.6165736,-49
1756899359.617257,-49
1756899359.619402,-56
1756899359.6200006,-67
1756899359.6206088,-75
1756899359.6207187,-75
1756899359.621483,-74
1756899359.6241853,-85
1756899359.6258368,-113
1756899359.6286902,-141
1756899359.6293929,-154
1756899359.631539,-151
1756899359.633717,-148
1756899359.6354706,-151
1756899359.6373749,-154
1756899359.639405,-148
1756899359.6413429,-133
1756899359.6433005,-117
1756899359.645379,-95
1756899359.6472583,-60
1756899359.64936,-18
1756899359.663324,6
1756899359.6636956,-5
1756899359.6645262,-37
1756899359.664699,-58
1756899359.6647875,-55
1756899359.664872,-42
1756899359.6657438,-43
1756899359.6666517,-63
1756899359.6668744,-83
1756899359.6686711,-88
1756899359.6708515,-80
1756899359.6728537,-64
1756899359.6748357,-40
1756899359.6768558,-3
1756899359.6786423,30
1756899359.6806905,39
1756899359.6831071,21
1756899359.684563,4
1756899359.686527,17
1756899359.6884985,55
1756899359.690438,81
1756899359.6924531,75
1756899359.696123,54
1756899359.6962795,49
1756899359.6982596,71
1756899359.7026975,101
1756899359.7029006,118
1756899359.7043483,122
1756899359.7073903,126
1756899359.7083366,129
1756899359.710378,128
1756899359.7121644,124
1756899359.7140853,125
1756899359.7161372,134
1756899359.7180312,136
1756899359.7212634,121
1756899359.7218502,103
1756899359.724764,100
1756899359.725831,112
1756899359.7279441,117
1756899359.729987,100
1756899359.7317665,76
1756899359.7337596,64
1756899359.7356207,65
1756899359.7376428,60
1756899359.7396455,39
1756899359.74162,17
1756899359.7464862,15
1756899359.7466233,31
1756899359.7473345,45
1756899359.7493308,45
1756899359.7514038,42
1756899359.7534065,50
1756899359.7556574,65
1756899359.757165,69
1756899359.7591543,47
1756899359.7611473,3
1756899359.7630963,-43
1756899359.76496,-80
1756899359.7669556,-117
1756899359.7689137,-175
1756899359.7708907,-265
1756899359.7729435,-374
1756899359.7750063,-471
1756899359.7770727,-538
1756899359.7786987,-590
1756899359.7807674,-648
1756899359.7827134,-712
1756899359.784641,-743
1756899359.78663,-700
1756899359.788583,-590
1756899359.790637,-461
1756899359.7926226,-353
1756899359.79454,-261
1756899359.7964199,-154
1756899359.798428,-27
1756899359.80388,94
1756899359.8094835,177
1756899359.8095732,219
1756899359.8096187,237
1756899359.8096611,235
1756899359.8140948,208
1756899359.8141613,164
1756899359.8142052,131
1756899359.8161783,129
1756899359.8182802,142
1756899359.8201656,130
1756899359.821931,86
1756899359.823987,46
1756899359.8330584,51
1756899359.8331091,94
1756899359.8331532,132
1756899359.8333259,132
1756899359.8350034,105
1756899359.8361952,90
1756899359.8376958,106
1756899359.839981,140
1756899359.8417754,166
1756899359.8438623,174
1756899359.8458319,168
1756899359.84785,158
1756899359.8497229,146
1756899359.8518715,130
1756899359.8550487,112
1756899359.857769,95
1756899359.858144,83
1756899359.8596573,80
1756899359.861489,88
1756899359.8635042,102
1756899359.8660436,111
1756899359.8671966,112
1756899359.8691313,111
1756899359.8710992,118
1756899359.8731618,131
1756899359.875056,139
1756899359.877107,126
1756899359.8790097,102
1756899359.881016,85
1756899359.8829591,87
1756899359.8853886,97
1756899359.8872068,99
1756899359.888799,88
1756899359.8907201,77
1756899359.8926873,78
1756899359.8947186,86
1756899359.8966098,88
1756899359.898644,78
1756899359.900637,61
1756899359.9041352,44
1756899359.9044774,28
1756899359.906886,16
1756899359.9086602,13
1756899359.910632,24
1756899359.9126728,41
1756899359.914613,51
1756899359.9165728,52
1756899359.9185498,53
1756899359.9211981,62
1756899359.9233413,71
1756899359.9244945,66
1756899359.9263954,44
1756899359.929128,21
1756899359.930154,12
1756899359.9320707,15
1756899359.9340289,17
1756899359.9360013,14
1756899359.9393485,14
1756899359.9400182,23
1756899359.9419148,35
1756899359.9439137,43
1756899359.9458163,51
1756899359.9477317,63
1756899359.9496903,77
1756899359.9519455,79
1756899359.9551835,62
1756899359.9561286,38
1756899359.9575605,25
1756899359.9597986,33
1756899359.9618585,52
1756899359.9634998,62
1756899359.965487,50
1756899359.9674635,24
1756899359.9694963,-1
1756899359.9715579,-10
1756899359.973409,2
1756899359.9753394,18
1756899359.977312,16
1756899359.9792926,-15
1756899359.9812434,-60
1756899359.984084,-86
1756899359.985165,-75
1756899359.9871624,-44
1756899359.9899826,-28
1756899359.9916198,-45
1756899359.9929588,-79
1756899359.9949708,-101
1756899359.9970267,-105
1756899359.999059,-106
1756899360.0046394,-112
1756899360.0047114,-117
1756899360.0047553,-115
1756899360.0067642,-118
1756899360.0088708,-140
1756899360.01067,-169
1756899360.012645,-174
1756899360.0146012,-148
1756899360.0169673,-124
1756899360.0186315,-138
1756899360.021411,-180
1756899360.0225718,-205
1756899360.024485,-188
1756899360.0263891,-161
1756899360.0284772,-168
1756899360.0303447,-217
1756899360.0322835,-264
1756899360.034247,-270
1756899360.0363307,-241
1756899360.0381749,-217
1756899360.0419014,-225
1756899360.0421367,-256
1756899360.0440385,-281
1756899360.0461516,-280
1756899360.0480194,-257
1756899360.0500195,-228
1756899360.054304,-210
1756899360.0544324,-210
1756899360.0558712,-216
1756899360.0579517,-215
1756899360.0598702,-201
1756899360.0617576,-188
1756899360.0643845,-190
1756899360.0656562,-208
1756899360.067625,-224
1756899360.0695794,-227
1756899360.0715985,-222
1756899360.0737016,-224
1756899360.075583,-232
1756899360.0776148,-230
1756899360.0795302,-201
1756899360.0814538,-153
1756899360.0833504,-111
1756899360.0853105,-100
1756899360.0873644,-113
1756899360.0900972,-124
1756899360.0912635,-114
1756899360.0931747,-90
1756899360.0952032,-73
1756899360.0971508,-72
1756899360.0994143,-77
1756899360.1012676,-73
1756899360.1029985,-59
1756899360.1050582,-36
1756899360.107224,-7
1756899360.1091952,29
1756899360.1111808,68
1756899360.1131377,92
1756899360.1170454,96
1756899360.1185167,93
1756899360.1189005,102
1756899360.121267,120
1756899360.1229663,129
1756899360.1247544,123
1756899360.1269224,121
1756899360.128614,141
1756899360.1306357,173
1756899360.132584,184
1756899360.1344712,164
1756899360.1381762,148
1756899360.1384728,174
1756899360.140337,234
1756899360.1437337,280
1756899360.1442826,280
1756899360.1462882,256
1756899360.1482003,253
1756899360.1502767,286
1756899360.1522229,324
1756899360.1541853,329
1756899360.1561787,305
1756899360.1580865,287
1756899360.1599874,295
1756899360.1620126,312
1756899360.163989,310
1756899360.1661587,287
1756899360.172722,267
1756899360.1728551,277
1756899360.1731434,311
1756899360.1748178,346
1756899360.1767147,358
1756899360.1779237,348
1756899360.1801686,335
1756899360.1821961,333
1756899360.1837995,344
1756899360.1857715,355
1756899360.1878848,354
1756899360.1899343,343
1756899360.1915925,332
1756899360.1936805,329
1756899360.195405,329
1756899360.197326,330
1756899360.199302,339
1756899360.2015831,363
1756899360.205279,388
1756899360.20551,389
1756899360.207283,355
1756899360.2091908,310
1756899360.2110846,293
1756899360.2131934,312
1756899360.2161098,339
1756899360.2170022,340
1756899360.2190406,311
1756899360.2211788,280
1756899360.2230625,270
1756899360.2251287,280
1756899360.227523,291
1756899360.2289715,296
1756899360.2309294,295
1756899360.2330158,290
1756899360.2348015,280
1756899360.2376509,268
1756899360.2386267,260
1756899360.2406578,263
1756899360.242598,269
1756899360.2455945,265
1756899360.2465,249
1756899360.2485464,229
1756899360.2503998,218
1756899360.2573533,214
1756899360.257486,211
1756899360.2576294,208
1756899360.2595448,210
1756899360.2603207,221
1756899360.2633157,234
1756899360.2673986,243
1756899360.2678354,252
1756899360.2700088,267
1756899360.270284,284
1756899360.272191,290
1756899360.2742171,275
1756899360.2761328,252
1756899360.2782862,242
1756899360.2801135,246
1756899360.2821438,242
1756899360.2839618,215
1756899360.2858944,184
1756899360.287887,182
1756899360.2898154,217
1756899360.2917469,251
1756899360.2937934,241
1756899360.2956662,195
1756899360.2975967,163
1756899360.2998607,181
1756899360.3024144,231
1756899360.3036287,261
1756899360.3070645,246
1756899360.3078556,203
1756899360.3095953,168
1756899360.3115857,160
1756899360.3135412,166
1756899360.3154283,174
1756899360.3173604,178
1756899360.3196645,175
1756899360.321297,163
1756899360.3233228,145
1756899360.3253465,137
1756899360.3358762,151
1756899360.3359878,183
1756899360.336077,209
1756899360.336161,211
1756899360.3362463,196
1756899360.3373964,184
1756899360.3389666,188
1756899360.340907,197
1756899360.3428562,194
1756899360.3447816,177
1756899360.352301,160
1756899360.3535802,156
1756899360.3551428,160
1756899360.3551884,152
1756899360.3552315,131
1756899360.3567696,110
1756899360.3624935,105
1756899360.3627007,112
1756899360.3627512,114
1756899360.3815672,101
1756899360.381758,84
1756899360.3819146,82
1756899360.3820395,96
1756899360.3821766,112
1756899360.382296,122
1756899360.3824456,135
1756899360.3825643,166
1756899360.3826857,201
1756899360.3828268,214
1756899360.3844447,194
1756899360.3877213,168
1756899360.3881292,166
1756899360.390135,190
1756899360.3924217,203
1756899360.39909,178
1756899360.4039896,131
1756899360.4045665,102
1756899360.4047139,112
1756899360.405122,141
1756899360.4051929,154
1756899360.40571,146
1756899360.4076972,140
1756899360.4165301,159
1756899360.4167516,195
1756899360.416803,218
1756899360.416861,211
1756899360.4183896,181
1756899360.4195197,158
1756899360.4214187,157
1756899360.423424,172
1756899360.4253516,176
1756899360.4274662,155
1756899360.429521,122
1756899360.4312363,109
1756899360.4336739,130
1756899360.4352875,164
1756899360.4374416,179
1756899360.4392595,165
1756899360.4414701,143
1756899360.4431534,137
1756899360.4454048,145
1756899360.4470832,144
1756899360.4493353,124
1756899360.4510412,99
1756899360.454791,94
1756899360.4550502,109
1756899360.4569402,120
1756899360.4589233,112
1756899360.461465,99
1756899360.4628243,103
1756899360.4657497,134
1756899360.4668114,168
1756899360.4686663,171
1756899360.4706888,138
1756899360.4726915,92
1756899360.4746215,70
1756899360.476623,83
1756899360.4805243,112
1756899360.489382,129
1756899360.4896061,124
1756899360.489815,112
1756899360.4904244,114
1756899360.4906232,129
1756899360.4908307,142
1756899360.492643,140
1756899360.4946177,127
1756899360.4962838,113
1756899360.506734,102
1756899360.507109,88
1756899360.507321,73
1756899360.50752,72
1756899360.5077698,96
1756899360.508016,131
1756899360.5102026,149
1756899360.511922,142
1756899360.5143228,130
1756899360.515855,138
1756899360.517819,165
1756899360.5198345,181
1756899360.525314,162
1756899360.5256243,120
1756899360.5258248,86
1756899360.5277023,76
1756899360.5296752,78
1756899360.5318325,70
1756899360.5393255,49
1756899360.554844,31
1756899360.5551424,20
1756899360.5553548,7
1756899360.5555863,-15
1756899360.559835,-35
1756899360.5607662,-39
1756899360.5613925,-28
1756899360.5615973,-16
1756899360.5618048,-18
1756899360.5624528,-28
1756899360.562654,-26
1756899360.5629191,-8
1756899360.5632584,15
1756899360.5635543,23
1756899360.5647008,12
1756899360.5655963,-11
1756899360.57165,-35
1756899360.572067,-53
1756899360.5722969,-64
1756899360.5729449,-67
1756899360.575132,-67
1756899360.5775654,-71
1756899360.5787952,-81
1756899360.5808501,-88
1756899360.5827422,-82
1756899360.5847063,-63
1756899360.586587,-42
1756899360.5886953,-29
1756899360.5906055,-21
1756899360.5925431,-11
1756899360.6007285,3
1756899360.6033485,12
1756899360.603595,7
1756899360.6037927,-4
1756899360.604,-5
1756899360.604377,11
1756899360.6071157,31
1756899360.6087067,39
1756899360.6104052,34
1756899360.6122181,32
1756899360.614785,44
1756899360.616652,61
1756899360.6183436,70
1756899360.6201632,72
1756899360.6223426,76
1756899360.6240337,86
1756899360.6263454,90
1756899360.6281803,76
1756899360.6302555,54
1756899360.6318734,49
1756899360.6348033,74
1756899360.6358356,106
1756899360.6377602,120
1756899360.6400259,107
1756899360.6416566,91
1756899360.643677,97
1756899360.645563,129
1756899360.652543,166
1756899360.65384,182
1756899360.6545227,167
1756899360.6574519,136
1756899360.6576674,119
1756899360.6578634,135
1756899360.659422,170
1756899360.6615236,191
1756899360.6633196,180
1756899360.6654801,158
1756899360.667362,154
1756899360.6694155,174
1756899360.6716378,191
1756899360.6734543,180
1756899360.6757057,155
1756899360.6773517,144
1756899360.6791477,160
1756899360.680941,181
1756899360.6829896,185
1756899360.685346,171
1756899360.6870143,157
1756899360.6888235,153
1756899360.6908386,156
1756899360.6928864,162
1756899360.7047112,170
1756899360.705379,175
1756899360.7056534,162
1756899360.7058532,133
1756899360.7065203,112
1756899360.7067199,121
1756899360.7069237,148
1756899360.7085037,157
1756899360.7105465,129
1756899360.7125497,88
1756899360.7144961,74
1756899360.7163327,89
1756899360.718613,96
1756899360.7205143,58
1756899360.7225423,-19
1756899360.7243052,-102
1756899360.7265105,-172
1756899360.7283008,-240
1756899360.7310545,-326
1756899360.73227,-423
1756899360.7344522,-505
1756899360.7361298,-556
1756899360.7383018,-580
1756899360.7401216,-584
1756899360.7428854,-562
1756899360.7439992,-495
1756899360.750959,-383
1756899360.7552612,-247
1756899360.7559793,-118
1756899360.7561998,-10
1756899360.7563987,85
1756899360.7566001,180
1756899360.7577205,271
1756899360.7597022,339
1756899360.7637765,364
1756899360.764325,348
1756899360.7655065,312
1756899360.767437,284
1756899360.7695284,275
1756899360.7720382,280
1756899360.7750027,280
1756899360.7755737,266
1756899360.7775705,247
1756899360.7793994,239
1756899360.781568,241
1756899360.7833045,246
1756899360.7856505,245
1756899360.7871573,241
1756899360.789447,244
1756899360.7911317,251
1756899360.7933319,247
1756899360.8044605,224
1756899360.8047526,192
1756899360.8049502,168
1756899360.8055665,160
1756899360.805763,160
1756899360.8063087,162
1756899360.8107812,167
1756899360.8158083,176
1756899360.8160203,181
1756899360.8162158,174
1756899360.8165867,169
1756899360.8205793,189
1756899360.82083,233
1756899360.8213248,269
1756899360.8226156,262
1756899360.8245456,222
1756899360.8264241,196
1756899360.8294187,213
1756899360.8304665,252
1756899360.832359,268
1756899360.8344965,248
1756899360.8691876,219
1756899360.8694685,210
1756899360.870305,216
1756899360.8958805,209
1756899360.8961797,186
1756899360.8963795,166
1756899360.896576,166
1756899360.8967764,175
1756899360.8969848,168
1756899360.897349,144
1756899360.8975475,128
1756899360.8977447,141
1756899360.8979404,176
1756899360.8981378,200
1756899360.8983347,194
1756899360.898531,169
1756899360.9005942,153
1756899360.9024928,160
1756899360.9027548,175
1756899360.9029799,173
1756899360.9031754,150
1756899360.9033718,127
1756899360.9035683,128
1756899360.9037647,154
1756899360.903962,178
1756899360.9041595,181
1756899360.9043565,166
1756899360.9045527,152
1756899360.905348,149
1756899360.9059455,152
1756899360.907139,153
1756899360.9097018,157
1756899360.9112902,166
1756899360.9308147,173
1756899360.9312832,166
1756899360.9316442,149
1756899360.9318414,136
1756899360.9320364,136
1756899360.9322536,138
1756899360.9324505,129
1756899360.9380798,109
1756899360.938453,97
1756899360.9386508,103
1756899360.9446185,121
1756899360.944838,130
1756899360.9450347,122
1756899360.9453545,107
1756899360.9455724,101
1756899360.9457695,109
1756899360.9459646,117
1756899360.9462762,110
1756899360.946478,79
1756899360.9466746,37
1756899360.9468708,6
1756899360.9470665,-6
1756899360.947263,-8
1756899360.9474592,-19
1756899360.9482362,-42
1756899360.9503744,-59
1756899360.9524965,-55
1756899360.954927,-35
1756899360.9587908,-18
1756899360.959053,-14
1756899360.9601252,-11
1756899360.9621825,3
1756899360.964004,20
1756899360.9659734,24
1756899360.9728167,9
1756899360.9732394,-10
1756899360.9782338,-19
1756899360.978528,-24
1756899360.9787273,-38
1756899360.9789562,-61
1756899360.979911,-78
1756899360.982266,-83
1756899360.983614,-91
1756899360.986207,-120
1756899360.9875293,-166
1756899360.989715,-199
1756899360.9916272,-203
1756899360.993626,-189
1756899361.004481,-186
1756899361.004733,-204
1756899361.0049307,-229
1756899361.0055525,-241
1756899361.0063934,-235
1756899361.006631,-222
1756899361.007544,-213
1756899361.0093904,-210
1756899361.0111997,-213
1756899361.0133312,-223
1756899361.015983,-237
1756899361.0186136,-249
1756899361.0190024,-250
1756899361.0211804,-243
1756899361.0229275,-234
1756899361.0252779,-225
1756899361.026954,-209
1756899361.0293396,-189
1756899361.030838,-171
1756899361.0328186,-157
1756899361.0347006,-138
1756899361.0376334,-107
1756899361.042718,-77
1756899361.0429578,-71
1756899361.0431583,-95
1756899361.0446992,-122
1756899361.0527778,-121
1756899361.0629463,-92
1756899361.063913,-64
1756899361.0652838,-59
1756899361.0655096,-65
1756899361.0657074,-57
1756899361.0661838,-29
1756899361.0663822,1
1756899361.066588,10
1756899361.066782,9
1756899361.0669875,18
1756899361.068137,41
1756899361.070359,62
1756899361.0721972,70
1756899361.074484,76
1756899361.0760708,96
1756899361.0783002,124
1756899361.0800843,139
1756899361.0823724,136
1756899361.0839057,134
1756899361.086584,151
1756899361.0877352,181
1756899361.089798,197
1756899361.0917692,190
1756899361.0937045,180
1756899361.1005254,193
1756899361.1008987,227
1756899361.1045737,254
1756899361.1053684,256
1756899361.1056116,246
1756899361.105809,255
1756899361.107644,290
1756899361.1095293,321
1756899361.1115046,319
1756899361.1135461,284
1756899361.1155348,248
1756899361.117422,238
1756899361.11929,249
1756899361.1214585,259
1756899361.1236343,254
1756899361.1255398,244
1756899361.1271615,248
1756899361.129251,267
1756899361.1311045,289
1756899361.1332226,306
1756899361.1350527,318
1756899361.1371298,328
1756899361.1388946,330
1756899361.140888,318
1756899361.1427968,297
1756899361.1449378,282
1756899361.1525722,283
1756899361.153539,290
1756899361.1537945,285
1756899361.1566272,264
1756899361.1582048,242
1756899361.1586287,240
1756899361.1588688,259
1756899361.160625,284
1756899361.1626375,300
1756899361.1646867,304
1756899361.1665435,304
1756899361.1845112,304
1756899361.1854439,306
1756899361.189205,313
1756899361.1894155,322
1756899361.1896412,328
1756899361.1901667,322
1756899361.1903663,303
1756899361.1905727,287
1756899361.1907675,286
1756899361.190962,297
1756899361.191167,299
1756899361.1913643,279
1756899361.1919394,248
1756899361.1942058,229
1756899361.2038755,231
1756899361.204111,241
1756899361.20431,247
1756899361.2045145,244
1756899361.2054672,243
1756899361.2057102,245
1756899361.2089198,247
1756899361.2096555,247
1756899361.2116208,250
1756899361.213679,255
1756899361.2203388,257
1756899361.2205784,247
1756899361.220776,229
1756899361.2214403,212
1756899361.2233827,206
1756899361.2253563,205
1756899361.2274292,202
1756899361.2296758,194
1756899361.231451,183
1756899361.2334018,173
1756899361.2354302,173
1756899361.2374108,187
1756899361.2391686,206
1756899361.2412972,216
1756899361.2431371,212
1756899361.2452583,200
1756899361.2543352,198
1756899361.2583551,201
1756899361.2588623,192
1756899361.259088,162
1756899361.2598927,128
1756899361.2603738,116
1756899361.2606766,125
1756899361.2608857,129
1756899361.2641742,113
1756899361.2669134,93
1756899361.26767,98
1756899361.2709174,127
1756899361.2715814,151
1756899361.2725868,146
1756899361.274567,126
1756899361.2764785,122
1756899361.2784946,140
1756899361.2805488,159
1756899361.282468,157
1756899361.284455,143
1756899361.286348,136
1756899361.2882562,142
1756899361.2904053,149
1756899361.2923667,145
1756899361.3164206,132
1756899361.317745,117
1756899361.3202121,104
1756899361.3204322,94
1756899361.3206284,92
1756899361.3208241,100
1756899361.3211977,110
1756899361.3214047,112
1756899361.3216832,111
1756899361.322169,119
1756899361.3223794,137
1756899361.3225765,148
1756899361.322782,138
1756899361.3229775,114
1756899361.3231828,98
1756899361.3236263,97
1756899361.3257096,93
1756899361.3275638,74
1756899361.329738,51
1756899361.331505,52
1756899361.3335617,83
1756899361.3358188,115
1756899361.3374546,121
1756899361.3394153,103
1756899361.3413646,92
1756899361.343348,104
1756899361.3567598,132
1756899361.357359,147
1756899361.3576143,136
1756899361.3578274,108
1756899361.3583083,84
1756899361.3592107,77
1756899361.3595157,84
1756899361.359713,94
1756899361.3613062,101
1756899361.362957,104
1756899361.3649096,105
1756899361.3673422,106
1756899361.3689024,109
1756899361.3709261,113
1756899361.3728256,118
1756899361.3748353,123
1756899361.3944235,122
1756899361.3955271,117
1756899361.3957975,109
1756899361.3960514,104
1756899361.396363,99
1756899361.3965642,93
1756899361.3967605,90
1756899361.3969557,89
1756899361.3971503,88
1756899361.39735,84
1756899361.3976028,75
1756899361.3987372,69
1756899361.410139,74
1756899361.410384,92
1756899361.4105792,113
1756899361.4107738,125
1756899361.410967,128
1756899361.4111602,128
1756899361.4126463,138
1756899361.4141562,155
1756899361.4259908,168
1756899361.4263725,162
1756899361.4265776,139
1756899361.4272015,116
1756899361.4273999,109
1756899361.427597,115
1756899361.42804,117
1756899361.429933,106
1756899361.431933,99
1756899361.4337428,115
1756899361.4356256,150
1756899361.4375455,175
1756899361.4399445,169
1756899361.441519,148
1756899361.4435375,147
1756899361.445473,167
1756899361.4473245,178
1756899361.4492965,152
1756899361.4512775,106
1756899361.4552372,84
1756899361.4553473,106
1756899361.457198,147
1756899361.4591918,166
1756899361.4619977,146
1756899361.4631147,108
1756899361.4650793,85
1756899361.4679563,84
1756899361.4691412,100
1756899361.4711452,115
1756899361.4731178,118
1756899361.4778159,101
1756899361.4780104,71
1756899361.4801085,46
1756899361.4808657,44
1756899361.4828086,65
1756899361.4848413,85
1756899361.4868836,87
1756899361.4886594,68
1756899361.490624,43
1756899361.4925983,28
1756899361.494502,28
1756899361.4964638,39
1756899361.4985385,54
1756899361.5008795,62
1756899361.5317743,56
1756899361.5320268,35
1756899361.5322032,18
1756899361.5326066,22
1756899361.532652,43
1756899361.5326958,58
1756899361.5327754,49
1756899361.5328193,29
1756899361.5328603,22
1756899361.5329013,35
1756899361.5329425,48
1756899361.5329838,43
1756899361.5330243,28
1756899361.5330658,27
1756899361.5331073,43
1756899361.5331488,53
1756899361.5414093,42
1756899361.542977,28
1756899361.5439515,45
1756899361.5443676,91
1756899361.5445657,127
1756899361.5447607,118
1756899361.546095,84
1756899361.5532517,81
1756899361.5535216,126
1756899361.5537193,180
1756899361.5541732,188
1756899361.5699387,148
1756899361.5703583,113
1756899361.5707295,127
1756899361.5721214,174
1756899361.5736449,202
1756899361.5739007,184
1756899361.5741024,144
1756899361.5746012,125
1756899361.5748043,136
1756899361.5750027,155
1756899361.5751994,160
1756899361.5772665,153
1756899361.5834534,151
1756899361.584317,162
1756899361.5845718,178
1756899361.5872648,188
1756899361.5874789,187
1756899361.589009,182
1756899361.5911455,183
1756899361.592973,191
1756899361.594954,199
1756899361.5983114,196
1756899361.6014082,185
1756899361.601635,177
1756899361.6028354,179
1756899361.6047986,187
1756899361.6067297,191
1756899361.6091251,188
1756899361.6164513,186
1756899361.6167758,186
1756899361.617722,185
1756899361.617925,176
1756899361.6184435,166
1756899361.6206474,166
1756899361.6224833,173
1756899361.6245375,174
1756899361.626452,167
1756899361.628334,167
1756899361.6302917,185
1756899361.6322696,208
1756899361.6348774,209
1756899361.6362898,185
1756899361.6382377,168
1756899361.6401074,179
1756899361.6421049,205
1756899361.6523302,207
1756899361.652643,178
1756899361.6528578,149
1756899361.6530867,150
1756899361.6532955,176
1756899361.6540225,190
1756899361.6558633,163
1756899361.6578228,109
1756899361.6597147,52
1756899361.6616845,-4
1756899361.6638563,-75
1756899361.6661117,-169
1756899361.667785,-272
1756899361.6697915,-363
1756899361.6721222,-436
1756899361.6737344,-498
1756899361.6765532,-553
1756899361.68084,-578
1756899361.6813369,-549
1756899361.6815386,-463
1756899361.6837723,-345
1756899361.68571,-230
1756899361.6873436,-131
1756899361.6893997,-38
1756899361.691253,65
1756899361.6932118,174
1756899361.6951768,264
1756899361.6971512,312
1756899361.6991177,317
1756899361.701062,301
1756899361.7061696,295
1756899361.706687,310
1756899361.707022,332
1756899361.709646,337
1756899361.7109206,321
1756899361.712817,302
1756899361.7148106,300
1756899361.7172916,315
1756899361.7188063,324
1756899361.7221608,304
1756899361.7226262,261
1756899361.724584,218
1756899361.7265663,196
1756899361.7285504,191
1756899361.7305887,187
1756899361.732811,179
1756899361.7344794,175
1756899361.7371225,182
1756899361.7404635,198
1756899361.740678,214
1756899361.7423463,228
1756899361.744268,242
1756899361.746366,252
1756899361.7482107,250
1756899361.750619,231
1756899361.7523253,206
1756899361.7543435,190
1756899361.7560213,189
1756899361.7582698,192
1756899361.7601023,185
1756899361.7622805,164
1756899361.7639773,147
1756899361.7661276,149
1756899361.7679055,167
1756899361.773588,180
1756899361.7741647,171
1756899361.774649,143
1756899361.775701,119
1756899361.777662,109
1756899361.7813702,109
1756899361.7816317,104
1756899361.7835488,90
1756899361.7856102,77
1756899361.7874923,77
1756899361.7906156,85
1756899361.7916284,94
1756899361.793396,99
1756899361.7953663,106
1756899361.8087177,114
1756899361.8096173,121
1756899361.810441,124
1756899361.810642,131
1756899361.8108506,143
1756899361.832031,149
1756899361.8332777,139
1756899361.8335016,113
1756899361.8336997,93
1756899361.8344,94
1756899361.8346279,112
1756899361.8348386,119
1756899361.8350346,98
1756899361.8352454,63
1756899361.8354733,43
1756899361.8356838,46
1756899361.8358815,57
1756899361.8360822,55
1756899361.8362775,37
1756899361.836502,20
1756899361.8367004,15
1756899361.8425252,23
1756899361.8434556,37
1756899361.8441153,52
1756899361.844571,65
1756899361.84659,71
1756899361.8487117,67
1756899361.850455,62
1756899361.85683,64
1756899361.8576038,67
1756899361.87964,57
1756899361.8806348,28
1756899361.8824005,1
1756899361.8828106,-3
1756899361.8830664,14
1756899361.8833208,23
1756899361.8835733,0
1756899361.8847182,-37
1756899361.884932,-55
1756899361.8852897,-37
1756899361.8855104,-8
1756899361.885732,-2
1756899361.886337,-27
1756899361.8901682,-58
1756899361.8904238,-70
1756899361.8906217,-62
1756899361.8908165,-58
1756899361.8910124,-73
1756899361.8916779,-100
1756899361.8937135,-119
1756899361.8956208,-122
1756899361.8975763,-119
1756899361.9042425,-124
1756899361.9047265,-135
1756899361.9078295,-142
1756899361.9081037,-139
1756899361.9083025,-138
1756899361.9095557,-157
1756899361.9113846,-190
1756899361.9135654,-214
1756899361.9157107,-207
1756899361.9172924,-182
1756899361.9192379,-171
1756899361.9226758,-193
1756899361.9231482,-230
1756899361.9252858,-248
1756899361.9270947,-231
1756899361.9319112,-198
1756899361.9321492,-182
1756899361.9330988,-199
1756899361.9349241,-234
1756899361.9368877,-260
1756899361.9389477,-264
1756899361.940811,-254
1756899361.9440086,-250
1756899361.9447312,-260
1756899361.9469535,-278
1756899361.9492462,-291
1756899361.9532523,-295
1756899361.9595275,-296
1756899361.9597845,-304
1756899361.9600103,-312
1756899361.960208,-310
1756899361.9604769,-298
1756899361.962492,-292
1756899361.9645667,-308
1756899361.969483,-336
1756899361.969738,-348
1756899361.9703908,-323
1756899361.9723282,-271
1756899361.97431,-223
1756899361.9764755,-200
1756899361.9789271,-198
1756899361.9801505,-195
1756899361.9823017,-176
1756899361.9845927,-147
1756899361.9862988,-123
1756899361.9881063,-117
1756899361.9911168,-126
1756899361.991922,-137
1756899362.0014582,-132
1756899362.0024326,-100
1756899362.0032873,-51
1756899362.026358,-6
1756899362.026915,23
1756899362.0292284,39
1756899362.0296066,59
1756899362.0298119,84
1756899362.03001,104
1756899362.0302072,109
1756899362.0304108,107
1756899362.0306048,107
1756899362.035753,107
1756899362.0360131,96
1756899362.0362103,77
1756899362.036405,78
1756899362.0366006,117
1756899362.0367947,174
1756899362.0369892,203
1756899362.0371835,178
1756899362.0373785,132
1756899362.0379617,111
1756899362.0388215,127
1756899362.0391498,145
1756899362.0411522,129
1756899362.043107,90
1756899362.045453,68
1756899362.0470097,85
1756899362.0490322,123
1756899362.050943,151
1756899362.0596023,166
1756899362.0598607,186
1756899362.0600588,213
1756899362.0602562,227
1756899362.060912,211
1756899362.0640736,178
1756899362.06473,158
1756899362.0715473,160
1756899362.07177,166
1756899362.0719657,153
1756899362.0726912,128
1756899362.0744953,123
1756899362.0765173,151
1756899362.078631,192
1756899362.0804248,216
1756899362.0824564,218
1756899362.084367,219
1756899362.086446,241
1756899362.0882645,275
1756899362.0905886,288
1756899362.092226,264
1756899362.0944383,225
1756899362.0961304,201
1756899362.098913,204
1756899362.1001337,213
1756899362.1021874,209
1756899362.1046216,197
1756899362.1060138,200
1756899362.10795,224
1756899362.1098678,247
1756899362.1118343,247
1756899362.1138585,229
1756899362.115815,219
1756899362.1177933,231
1756899362.1199193,243
1756899362.1227078,227
1756899362.1237628,184
1756899362.1256106,147
1756899362.1277575,145
1756899362.1295974,169
1756899362.1357796,187
1756899362.1359968,182
1756899362.1362903,168
1756899362.1373885,167
1756899362.1394746,183
1756899362.141342,197
1756899362.1433895,192
1756899362.1453457,172
1756899362.1473236,157
1756899362.1492434,158
1756899362.1513474,166
1756899362.1754577,167
1756899362.1757479,158
1756899362.1759593,150
1756899362.1761572,154
1756899362.1763551,169
1756899362.1766002,184
1756899362.176894,191
1756899362.1782713,189
1756899362.179796,185
1756899362.180689,182
1756899362.180891,181
1756899362.1813867,180
1756899362.1842368,174
1756899362.1848621,161
1756899362.1852353,148
1756899362.1854532,145
1756899362.1856594,152
1756899362.18652,156
1756899362.188489,151
1756899362.1905303,146
1756899362.1926732,155
1756899362.2192879,174
1756899362.2196531,178
1756899362.2201,153
1756899362.2203107,117
1756899362.2211485,101
1756899362.2380424,113
1756899362.2382822,125
1756899362.2384777,111
1756899362.2386744,81
1756899362.2389004,64
1756899362.2391002,76
1756899362.2392957,97
1756899362.2395203,110
1756899362.2397184,117
1756899362.239915,130
1756899362.2401116,146
1756899362.240309,149
1756899362.240506,137
1756899362.2407026,125
1756899362.2409003,127
1756899362.2411885,133
1756899362.2417643,123
1756899362.2419684,95
1756899362.2422605,71
1756899362.2424605,66
1756899362.2436945,71
1756899362.245521,70
1756899362.2528458,61
1756899362.2530823,59
1756899362.2534807,67
1756899362.259236,74
1756899362.2702966,70
1756899362.2705734,61
1756899362.2707856,66
1756899362.2718768,81
1756899362.2797575,91
1756899362.289356,83
1756899362.289617,72
1756899362.290261,77
1756899362.290822,97
1756899362.291022,111
1756899362.2912178,104
1756899362.291414,87
1756899362.2916093,81
1756899362.2918034,89
1756899362.2919974,90
1756899362.2922165,73
1756899362.2924128,44
1756899362.292712,25
1756899362.292978,26
1756899362.2932198,37
1756899362.299504,47
1756899362.3008165,50
1756899362.3014216,53
1756899362.3020475,58
1756899362.303801,62
1756899362.3067775,61
1756899362.3272002,55
1756899362.3275,51
1756899362.3277152,56
1756899362.328581,67
1756899362.3288572,70
1756899362.3297875,59
1756899362.3306272,43
1756899362.3310733,46
1756899362.332794,81
1756899362.3331923,120
1756899362.3333917,127
1756899362.3335955,96
1756899362.3374255,59
1756899362.3384116,53
1756899362.3386922,76
1756899362.3389726,87
1756899362.3392315,60
1756899362.3399072,13
1756899362.342123,-10
1756899362.3437989,3
1756899362.3461044,31
1756899362.3477356,51
1756899362.349748,68
1756899362.3567495,98
1756899362.3571734,134
1756899362.3574147,150
1756899362.3576121,132
1756899362.3599412,103
1756899362.3614855,92
1756899362.3634605,100
1756899362.3654377,102
1756899362.3677099,79
1756899362.3694162,39
1756899362.3714075,9
1756899362.3733037,-1
1756899362.3752515,-1
1756899362.3806095,-1
1756899362.3812938,2
1756899362.3814945,13
1756899362.384075,23
1756899362.3852382,18
1756899362.3870485,-3
1756899362.389298,-19
1756899362.3919914,-13
1756899362.3941073,9
1756899362.3948789,24
1756899362.3968325,24
1756899362.399032,19
1756899362.4013617,20
1756899362.4083567,26
1756899362.41648,35
1756899362.416878,46
1756899362.4172552,61
1756899362.4174528,69
1756899362.417658,55
1756899362.4180765,21
1756899362.4192526,-8
1756899362.4194522,-7
1756899362.4204555,16
1756899362.422435,31
1756899362.4247491,27
1756899362.4264443,20
1756899362.4283316,31
1756899362.4306667,53
1756899362.4353533,62
1756899362.4355958,49
1756899362.4361613,32
1756899362.4383514,28
1756899362.4401686,29
1756899362.4423587,19
1756899362.4440465,0
1756899362.4462988,-9
1756899362.4479628,-1
1756899362.4501991,7
1756899362.4520433,-5
1756899362.4722843,-28
1756899362.4725246,-42
1756899362.4727242,-37
1756899362.47292,-30
1756899362.4733355,-41
1756899362.4735365,-70
1756899362.473734,-99
1756899362.4741504,-115
1756899362.4743488,-119
1756899362.4745436,-119
1756899362.4747396,-118
1756899362.4754725,-113
1756899362.4775786,-103
1756899362.4805322,-93
1756899362.4814584,-90
1756899362.4866853,-95
1756899362.4873827,-98
1756899362.4874406,-91
1756899362.4891903,-73
1756899362.4910417,-59
1756899362.4948492,-63
1756899362.4951282,-79
1756899362.4982193,-86
1756899362.4993331,-67
1756899362.5015213,-30
1756899362.504494,5
1756899362.504947,23
1756899362.5069191,29
1756899362.5129528,35
1756899362.513083,47
1756899362.5132744,57
1756899362.5146961,61
1756899362.5166643,60
1756899362.518589,63
1756899362.52057,71
1756899362.5225713,81
1756899362.5244699,83
1756899362.5264409,73
1756899362.5284636,56
1756899362.530541,46
1756899362.5323317,53
1756899362.5344172,74
1756899362.537321,93
1756899362.5383737,94
1756899362.5403361,82
1756899362.5423563,74
1756899362.5443199,83
1756899362.546397,98
1756899362.54822,106
1756899362.5502553,105
1756899362.5524325,107
1756899362.556189,116
1756899362.5563781,122
1756899362.5579338,117
1756899362.56004,110
1756899362.5618715,117
1756899362.5638275,142
1756899362.5657964,168
1756899362.568068,174
1756899362.570667,162
1756899362.57183,151
1756899362.573935,154
1756899362.5758867,168
1756899362.5778594,180
1756899362.579638,182
1756899362.58153,176
1756899362.5835743,168
1756899362.5855076,158
1756899362.5880265,153
1756899362.5897338,158
1756899362.5913498,168
1756899362.5933104,171
1756899362.597369,157
1756899362.5976799,138
1756899362.6017263,131
1756899362.601987,139
1756899362.6031594,142
1756899362.6068213,124
1756899362.607074,93
1756899362.6092672,81
1756899362.6111639,101
1756899362.6135564,131
1756899362.6150923,130
1756899362.6172113,87
1756899362.619133,30
1756899362.6210535,-7
1756899362.6229951,-32
1756899362.6249425,-79
1756899362.6277268,-169
1756899362.6288965,-287
1756899362.6308613,-393
1756899362.6335075,-468
1756899362.6346266,-524
1756899362.6369793,-582
1756899362.6385534,-636
1756899362.640585,-656
1756899362.6424358,-616
1756899362.6444533,-520
1756899362.646417,-403
1756899362.6484146,-289
1756899362.6504025,-181
1756899362.6526947,-65
1756899362.6558504,57
1756899362.6562657,167
1756899362.658331,242
1756899362.6603432,276
1756899362.6623201,282
1756899362.6642442,278
1756899362.6663647,268
1756899362.6693084,250
1756899362.6699898,225
1756899362.671936,201
1756899362.673904,181
1756899362.6758687,160
1756899362.6778882,141
1756899362.679974,135
1756899362.6817522,148
1756899362.683796,170
1756899362.6859252,181
1756899362.687868,171
1756899362.6899724,151
1756899362.691992,140
1756899362.6972063,145
1756899362.6974106,157
1756899362.6975338,163
1756899362.7005637,163
1756899362.7014427,162
1756899362.713041,164
1756899362.713763,171
1756899362.7144377,179
1756899362.7148983,185
1756899362.7150574,185
1756899362.7152126,172
1756899362.7154942,153
1756899362.730354,139
1756899362.7306674,140
1756899362.730827,150
1756899362.730982,152
1756899362.7311366,135
1756899362.7312925,107
1756899362.7314477,85
1756899362.731602,84
1756899362.7332647,94
1756899362.7362785,97
1756899362.7369854,85
1756899362.744072,72
1756899362.7441766,75
1756899362.7442546,94
1756899362.744657,115
1756899362.746681,123
1756899362.7485962,119
1756899362.7505505,118
1756899362.7550342,126
1756899362.755086,136
1756899362.756492,140
1756899362.7585528,136
1756899362.7756786,129
1756899362.7757652,122
1756899362.7758098,112
1756899362.7758546,104
1756899362.7758977,105
1756899362.775942,113
1756899362.775984,115
1756899362.7760432,105
1756899362.7783263,103
1756899362.778409,130
1756899362.782683,176
1756899362.7834723,201
1756899362.7849522,172
1756899362.7868237,108
1756899362.7879045,63
1756899362.7898743,67
1756899362.7918148,95
1756899362.793844,93
1756899362.7959766,44
1756899362.797792,-14
1756899362.7997591,-29
1756899362.8016331,8
1756899362.8038502,59
1756899362.805701,82
1756899362.807667,69
1756899362.8095996,44
1756899362.8170476,35
1756899362.8173795,48
1756899362.8176904,66
1756899362.8179688,70
1756899362.8236644,51
1756899362.828876,21
1756899362.8291247,3
1756899362.829392,10
1756899362.8295493,32
1756899362.8336108,49
1756899362.8339596,49
1756899362.8342295,40
1756899362.8364313,40
1756899362.837394,52
1756899362.8392453,60
1756899362.8410044,50
1756899362.8429072,25
1756899362.8448553,1
1756899362.8468904,-10
1756899362.8490658,-9
1756899362.8508024,-3
1756899362.8527813,1
1756899362.8547335,0
1756899362.8578043,-6
1756899362.8634758,-12
1756899362.863563,-15
1756899362.8636162,-19
1756899362.8645315,-26
1756899362.8665316,-37
1756899362.8684807,-47
1756899362.8705084,-47
1756899362.8724604,-41
1756899362.874373,-42
1756899362.8763568,-56
1756899362.8783011,-78
1756899362.8802865,-95
1756899362.8822696,-108
1756899362.8842309,-129
1756899362.8873506,-162
1756899362.8881567,-192
1756899362.9100401,-203
1756899362.9108946,-196
1756899362.910953,-190
1756899362.9109976,-194
1756899362.911042,-196
1756899362.911094,-182
1756899362.9111924,-155
1756899362.9112384,-136
1756899362.9113572,-139
1756899362.9114017,-163
1756899362.911444,-194
1756899362.9116838,-225
1756899362.91366,-254
1756899362.9156487,-278
1756899362.9195435,-291
1756899362.9198682,-287
1756899362.9217005,-274
1756899362.9235227,-259
1756899362.9260094,-245
1756899362.9274437,-229
1756899362.9343774,-209
1756899362.934452,-190
1756899362.934498,-181
1756899362.9353328,-188
1756899362.93764,-210
1756899362.9392006,-232
1756899362.9412522,-236
1756899362.9432285,-216
1756899362.9453075,-185
1756899362.9470575,-170
1756899362.949042,-174
1756899362.9509876,-179
1756899362.952955,-158
1756899362.9549248,-108
1756899362.95741,-58
1756899362.9589393,-40
1756899362.9609334,-55
1756899362.9640212,-66
1756899362.964791,-44
1756899362.967476,4
1756899362.9686792,39
1756899362.9707363,34
1756899362.9727247,3
1756899362.9746363,-11
1756899362.9766636,13
1756899362.979089,56
1756899362.9805348,79
1756899362.9825165,70
1756899362.9848316,56
1756899362.986363,68
1756899362.9883869,103
1756899362.9903,135
1756899362.9923167,147
1756899362.9942145,155
1756899362.9962118,179
1756899362.9983063,218
1756899363.0002573,245
1756899363.0025392,245
1756899363.0042076,233
1756899363.0063748,233
1756899363.0082345,244
1756899363.0128934,253
1756899363.0131013,252
1756899363.0141897,246
1756899363.0162332,241
1756899363.0181496,230
1756899363.0228133,207
1756899363.0235584,183
1756899363.024076,180
1756899363.026052,202
1756899363.0276577,229
1756899363.0296316,236
1756899363.0315921,226
1756899363.033535,222
1756899363.0355053,242
1756899363.0374753,277
1756899363.040184,305
1756899363.0414047,308
1756899363.0442517,289
1756899363.049479,263
1756899363.0511754,246
1756899363.0512927,244
1756899363.0513606,255
1756899363.0532517,270
1756899363.0556889,273
1756899363.0574303,261
1756899363.0604148,245
1756899363.0611136,242
1756899363.0631087,254
1756899363.0650706,267
1756899363.0670002,266
1756899363.06895,249
1756899363.0708797,229
1756899363.0728512,215
1756899363.074956,210
1756899363.0772803,210
1756899363.0788324,215
1756899363.0809376,218
1756899363.083428,213
1756899363.0847368,200
1756899363.0867703,196
1756899363.0886335,221
1756899363.0906084,267
1756899363.0926018,303
1756899363.0945232,298
1756899363.0965118,259
1756899363.0989823,225
1756899363.1008332,221
1756899363.1023498,233
1756899363.1043115,226
1756899363.1063087,188
1756899363.1086397,151
1756899363.1102479,143
1756899363.112218,160
1756899363.1164424,177
1756899363.116635,182
1756899363.118121,187
1756899363.1200526,211
1756899363.122006,243
1756899363.1267984,260
1756899363.1283994,244
1756899363.1291475,208
1756899363.1302152,170
1756899363.1320217,145
1756899363.13406,134
1756899363.1359956,131
1756899363.1380353,129
1756899363.1399596,121
1756899363.1418562,108
1756899363.144764,100
1756899363.146031,107
1756899363.1477587,127
1756899363.150356,145
1756899363.153309,146
1756899363.1556041,131
1756899363.1557012,109
1756899363.159223,93
1756899363.1600838,90
1756899363.1613235,99
1756899363.1633866,117
1756899363.1652663,134
1756899363.167259,138
1756899363.1691728,127
1756899363.171139,109
1756899363.1731036,99
1756899363.1761177,102
1756899363.1772468,107
1756899363.179353,103
1756899363.1812541,88
1756899363.1831427,74
1756899363.1851678,71
1756899363.187056,72
1756899363.1890492,65
1756899363.1909811,51
1756899363.193042,41
1756899363.1950216,46
1756899363.1970422,60
1756899363.1988323,67
1756899363.2009559,57
1756899363.2031026,44
1756899363.2164772,53
1756899363.2175305,85
1756899363.217787,115
1756899363.2183242,119
1756899363.2194858,99
1756899363.2200074,86
1756899363.2203307,99
1756899363.2213652,122
1756899363.2327971,121
1756899363.2346148,85
1756899363.2348373,43
1756899363.2350333,35
1756899363.2352302,69
1756899363.2354527,108
1756899363.2356503,115
1756899363.235894,92
1756899363.236269,74
1756899363.2383246,90
1756899363.2402098,125
1756899363.2422433,139
1756899363.2485864,111
1756899363.2488623,66
1756899363.2490628,45
1756899363.2502296,62
1756899363.2530637,92
1756899363.2538626,103
1756899363.2559626,91
1756899363.2577665,73
1756899363.2599425,70
1756899363.2668242,81
1756899363.2672384,91
1756899363.267442,94
1756899363.2676373,94
1756899363.269577,94
1756899363.271471,91
1756899363.2735176,81
1756899363.2754593,70
1756899363.277543,72
1756899363.279491,92
1756899363.2815053,117
1756899363.3017747,126
1756899363.3031712,117
1756899363.303696,101
1756899363.3039026,95
1756899363.3040993,102
1756899363.3042953,110
1756899363.3044906,111
1756899363.3048651,109
1756899363.3061924,109
1756899363.306397,109
1756899363.3065934,106
1756899363.3067892,99
1756899363.306984,98
1756899363.310217,107
1756899363.3106961,114
1756899363.3152478,106
1756899363.3155627,81
1756899363.318004,58
1756899363.3187132,53
1756899363.3214595,64
1756899363.3224616,74
1756899363.3244271,70
1756899363.3282979,59
1756899363.328386,57
1756899363.3305776,70
1756899363.33234,90
1756899363.3342903,100
1756899363.3367207,98
1756899363.3383026,96
1756899363.3411644,104
1756899363.3422275,123
1756899363.3441918,141
1756899363.346097,150
1756899363.3480303,151
1756899363.3500547,145
1756899363.351998,130
1756899363.3540514,108
1756899363.355935,88
1756899363.357833,80
1756899363.359864,81
1756899363.3632474,75
1756899363.3637905,51
1756899363.3657608,24
1756899363.3677185,21
1756899363.3696866,56
1756899363.372608,109
1756899363.3737073,146
1756899363.3758373,146
1756899363.3775182,122
1756899363.3795047,106
1756899363.382701,114
1756899363.3834302,131
1756899363.3854191,128
1756899363.3873591,92
1756899363.3893435,45
1756899363.3913178,15
1756899363.3932214,14
1756899363.395187,28
1756899363.3971536,39
1756899363.3991065,38
1756899363.4010835,35
1756899363.4030433,35
1756899363.4062476,36
1756899363.4070346,35
1756899363.409206,34
1756899363.4153733,36
1756899363.4159713,36
1756899363.4167476,23
1756899363.4169436,-2
1756899363.4196875,-25
1756899363.4208684,-34
1756899363.4228342,-28
1756899363.4248264,-21
1756899363.4267523,-24
1756899363.428701,-33
1756899363.4307048,-38
1756899363.432574,-37
1756899363.4345024,-36
1756899363.4365647,-43
1756899363.4393144,-55
1756899363.4404883,-65
1756899363.443229,-69
1756899363.4443364,-74
1756899363.4463077,-87
1756899363.4485104,-102
1756899363.4503274,-109
1756899363.4530337,-98
1756899363.4541817,-74
1756899363.4562705,-51
1756899363.4581015,-36
1756899363.4664795,-26
1756899363.4665532,-10
1756899363.4665968,13
1756899363.4666395,34
1756899363.4679167,40
1756899363.4698682,33
1756899363.4718325,25
1756899363.473839,24
1756899363.4757824,27
1756899363.4777732,28
1756899363.4798453,28
1756899363.4816847,32
1756899363.4836605,41
1756899363.4856257,51
1756899363.4877484,61
1756899363.489711,78
1756899363.4915543,101
1756899363.493561,120
1756899363.4954624,117
1756899363.497482,96
1756899363.4995174,80
1756899363.50143,89
1756899363.503372,117
1756899363.5052695,137
1756899363.510011,133
1756899363.510128,119
1756899363.5111763,118
1756899363.5131116,138
1756899363.5151136,159
1756899363.5170507,161
1756899363.5190127,141
1756899363.5210319,112
1756899363.5229223,94
1756899363.5248978,93
1756899363.5268972,105
1756899363.528836,116
1756899363.5309713,116
1756899363.5331886,111
1756899363.5349367,114
1756899363.537147,136
1756899363.5393744,172
1756899363.5469546,199
1756899363.5501688,203
1756899363.5581932,187
1756899363.559414,165
1756899363.55981,148
1756899363.560035,137
1756899363.5603554,131
1756899363.5605547,131
1756899363.5637846,132
1756899363.564123,127
1756899363.5643265,113
1756899363.5645258,99
1756899363.5649831,97
1756899363.566485,108
1756899363.5684106,120
1756899363.5711904,126
1756899363.5722773,123
1756899363.5742545,108
1756899363.5762131,77
1756899363.5781925,26
1756899363.5801554,-33
1756899363.5821667,-82
1756899363.5842602,-124
1756899363.5860991,-182
1756899363.5880022,-277
1756899363.590624,-392
1756899363.5920138,-492
1756899363.593888,-555
1756899363.5959308,-587
1756899363.597824,-600
1756899363.5997858,-583
1756899363.6017501,-516
1756899363.603771,-400
1756899363.60576,-267
1756899363.6092832,-144
1756899363.609752,-30
1756899363.6115751,93
1756899363.6135828,223
1756899363.6156077,335
1756899363.6174943,401
1756899363.619524,417
1756899363.6215284,402
1756899363.62342,373
1756899363.6253586,338
1756899363.6273692,301
1756899363.6293616,273
1756899363.6313715,256
1756899363.6332638,237
1756899363.635153,203
1756899363.6373348,156
1756899363.6391165,119
1756899363.641091,112
1756899363.6430283,130
1756899363.6450322,143
1756899363.650743,127
1756899363.6521306,91
1756899363.652685,68
1756899363.6528955,76
1756899363.6547985,105
1756899363.6769812,125
1756899363.6778827,123
1756899363.6779284,113
1756899363.6779702,112
1756899363.6780114,123
1756899363.6780524,130
1756899363.6781025,117
1756899363.678341,91
1756899363.6783845,68
1756899363.678427,64
1756899363.678469,74
1756899363.6785107,84
1756899363.6802135,81
1756899363.682294,68
1756899363.6852682,57
1756899363.6864796,63
1756899363.6882815,78
1756899363.6901836,85
1756899363.6920419,74
1756899363.6941938,55
1756899363.6960132,47
1756899363.6980796,55
1756899363.6999097,58
1756899363.7018702,40
1756899363.7038605,11
1756899363.705862,-2
1756899363.7088645,8
1756899363.7097147,20
1756899363.711773,11
1756899363.7137022,-9
1756899363.7156677,-9
1756899363.7176518,21
1756899363.72031,56
1756899363.7215734,59
1756899363.7236938,30
1756899363.725667,0
1756899363.7275987,-5
1756899363.729658,6
1756899363.7315223,3
1756899363.734658,-22
1756899363.7353313,-50
1756899363.738064,-55
1756899363.7397385,-36
1756899363.7417402,-12
1756899363.743188,-4
1756899363.746083,-14
1756899363.7472708,-24
1756899363.749155,-20
1756899363.751259,-4
1756899363.7539573,6
1756899363.7549474,-3
1756899363.7570798,-29
1756899363.7589278,-51
1756899363.7625358,-47
1756899363.76294,-19
1756899363.7648554,8
1756899363.7670832,12
1756899363.768954,-9
1756899363.7710001,-36
1756899363.7729275,-49
1756899363.774727,-46
1756899363.7802317,-43
1756899363.7804015,-54
1756899363.7813587,-81
1756899363.7824984,-112
1756899363.7844605,-129
1756899363.7865486,-121
1756899363.7886918,-98
1756899363.7903929,-77
1756899363.792275,-72
1756899363.7942307,-75
1756899363.796329,-76
1756899363.7983305,-74
1756899363.800288,-82
1756899363.802484,-107
1756899363.804065,-135
1756899363.8090405,-147
1756899363.8092978,-137
1756899363.810331,-123
1756899363.811949,-116
1756899363.8139691,-117
1756899363.8159192,-114
1756899363.8180983,-105
1756899363.8202944,-98
1756899363.8219762,-102
1756899363.8238769,-116
1756899363.8305018,-138
1756899363.8372307,-164
1756899363.8391635,-191
1756899363.83936,-213
1756899363.8395317,-224
1756899363.8396854,-226
1756899363.8398373,-225
1756899363.839989,-224
1756899363.8414462,-216
1756899363.8436556,-203
1756899363.8458726,-196
1756899363.8476343,-202
1756899363.8497357,-218
1756899363.8516343,-227
1756899363.8557734,-223
1756899363.8559866,-223
1756899363.857149,-246
1756899363.8593678,-292
1756899363.861341,-332
1756899363.8699427,-342
1756899363.8827,-325
1756899363.88346,-308
1756899363.8843064,-307
1756899363.8846042,-312
1756899363.884807,-305
1756899363.8850033,-283
1756899363.8850932,-262
1756899363.8852577,-257
1756899363.8853917,-263
1756899363.8854434,-264
1756899363.8855634,-255
1756899363.8866742,-247
1756899363.8886385,-249
1756899363.8905098,-255
1756899363.8927016,-249
1756899363.89461,-227
1756899363.8966973,-203
1756899363.898391,-195
1756899363.9007304,-203
1756899363.9023802,-207
1756899363.9127393,-189
1756899363.914155,-159
1756899363.914523,-140
1756899363.9145992,-139
1756899363.9147048,-140
1756899363.9147487,-118
1756899363.9160478,-69
1756899363.917996,-16
1756899363.919984,11
1756899363.9222116,13
1756899363.9244072,14
1756899363.928154,32
1756899363.928351,59
1756899363.9299521,71
1756899363.9319162,62
1756899363.9338589,50
1756899363.9360135,52
1756899363.937978,68
1756899363.9398646,85
1756899363.9427276,98
1756899363.9436767,119
1756899363.9455447,153
1756899363.9475071,185
1756899363.9494786,194
1756899363.9514475,181
1756899363.9534028,171
1756899363.9560244,177
1756899363.9574792,189
1756899363.9593894,186
1756899363.9614923,170
1756899363.963383,165
1756899363.9661093,188
1756899363.9673164,225
1756899363.9691927,250
1756899363.971163,258
1756899363.9732459,269
1756899363.975067,298
1756899363.9771194,331
1756899363.9790325,344
1756899363.9810202,332
1756899363.982958,314
1756899363.9856215,313
1756899363.9868827,327
1756899363.9888039,334
1756899363.9908519,322
1756899363.992831,303
1756899363.994699,296
1756899363.9969914,308
1756899363.998598,326
1756899364.0006635,333
1756899364.002638,330
1756899364.0089774,328
1756899364.00915,335
1756899364.0092287,345
1756899364.0112312,345
1756899364.0125132,334
1756899364.014872,323
1756899364.0170825,327
1756899364.018273,345
1756899364.0202959,362
1756899364.0222735,364
1756899364.0241785,353
1756899364.0265,343
1756899364.0281105,348
1756899364.030178,367
1756899364.0320477,381
1756899364.0350082,375
1756899364.0380433,348
1756899364.03825,315
1756899364.0401366,292
1756899364.0419264,283
1756899364.044041,280
1756899364.0459595,282
1756899364.0479133,285
1756899364.0499346,285
1756899364.0519047,279
1756899364.053877,268
1756899364.0558825,266
1756899364.0579164,279
1756899364.0597084,295
1756899364.06226,296
1756899364.0636387,278
1756899364.0657067,259
1756899364.0676475,259
1756899364.0695734,274
1756899364.0715244,280
1756899364.0753298,269
1756899364.0755653,250
1756899364.077476,241
1756899364.0794961,243
1756899364.0813937,247
1756899364.0834937,249
1756899364.0852034,252
1756899364.0878842,262
1756899364.0892096,274
1756899364.0911539,277
1756899364.093164,270
1756899364.0950265,260
1756899364.0971096,249
1756899364.0990615,231
1756899364.1062872,206
1756899364.1065426,181
1756899364.1067402,163
1756899364.1069374,155
1756899364.1088963,149
1756899364.1108444,143
1756899364.1128542,146
1756899364.114841,166
1756899364.1168072,192
1756899364.1190608,207
1756899364.121343,207
1756899364.1225994,204
1756899364.125126,211
1756899364.1265826,222
1756899364.1284623,220
1756899364.1304142,199
1756899364.1325068,174
1756899364.1343937,160
1756899364.1368203,157
1756899364.1413805,155
1756899364.1415846,150
1756899364.1421776,150
1756899364.1442845,157
1756899364.146245,163
1756899364.148142,160
1756899364.150173,156
1756899364.152233,161
1756899364.1540778,172
1756899364.1560333,175
1756899364.1579933,166
1756899364.1599464,158
1756899364.1619477,164
1756899364.1639068,175
1756899364.1658986,174
1756899364.1678648,154
1756899364.1698287,130
1756899364.1720624,118
1756899364.1737597,122
1756899364.1757345,133
1756899364.1776965,146
1756899364.1796713,158
1756899364.1816308,164
1756899364.1835642,160
1756899364.1855388,151
1756899364.187468,146
1756899364.1903257,151
1756899364.1913784,158
1756899364.1947367,156
1756899364.1955667,145
1756899364.205218,133
1756899364.2067351,132
1756899364.2073627,142
1756899364.2075644,157
1756899364.207762,169
1756899364.2079587,173
1756899364.2092073,165
1756899364.2110567,152
1756899364.2131917,143
1756899364.2149422,145
1756899364.218113,152
1756899364.2189155,150
1756899364.2211773,136
1756899364.2231262,123
1756899364.2251146,124
1756899364.2327967,136
1756899364.2329764,140
1756899364.2341824,126
1756899364.234393,103
1756899364.2401443,89
1756899364.2405758,96
1756899364.2407775,109
1756899364.2409718,108
1756899364.2425935,86
1756899364.2445939,57
1756899364.2464793,44
1756899364.2494776,55
1756899364.25037,77
1756899364.2524078,93
1756899364.2707834,94
1756899364.2710683,89
1756899364.2713828,91
1756899364.2717712,102
1756899364.2719815,114
1756899364.272214,113
1756899364.2724106,99
1756899364.272606,84
1756899364.2728014,82
1756899364.2729943,88
1756899364.275319,87
1756899364.2759635,68
1756899364.277894,45
1756899364.2807448,36
1756899364.2818065,47
1756899364.2838962,56
1756899364.285708,48
1756899364.2876031,29
1756899364.2896345,22
1756899364.2931466,38
1756899364.2947896,58
1756899364.2954369,61
1756899364.2973788,53
1756899364.2993371,56
1756899364.301292,78
1756899364.3033245,101
1756899364.3093274,101
1756899364.3107922,79
1756899364.3108654,63
1756899364.3124185,66
1756899364.3132062,76
1756899364.3167353,67
1756899364.3172224,37
1756899364.319814,8
1756899364.3210921,-3
1756899364.3233776,-2
1756899364.3249254,-6
1756899364.3269737,-17
1756899364.3289237,-16
1756899364.3323886,5
1756899364.3392177,31
1756899364.3393044,38
1756899364.339365,26
1756899364.339424,13
1756899364.3405983,14
1756899364.342518,20
1756899364.344487,12
1756899364.3464599,-12
1756899364.3484786,-34
1756899364.350452,-41
1756899364.3525445,-40
1756899364.355449,-43
1756899364.3563902,-50
1756899364.3583362,-49
1756899364.360317,-33
1756899364.3622582,-11
1756899364.3643243,-3
1756899364.3684072,-14
1756899364.3685362,-32
1756899364.3709593,-45
1756899364.3733876,-53
1756899364.374187,-66
1756899364.3761666,-89
1756899364.378225,-115
1756899364.3800657,-132
1756899364.3821516,-139
1756899364.3839517,-139
1756899364.385952,-134
1756899364.3878984,-123
1756899364.3898454,-104
1756899364.391765,-85
1756899364.3938231,-74
1756899364.3965645,-77
1756899364.397571,-86
1756899364.3997443,-91
1756899364.4015188,-89
1756899364.4035425,-87
1756899364.4085355,-91
1756899364.4087157,-103
1756899364.4094656,-115
1756899364.4114232,-118
1756899364.413365,-106
1756899364.4153416,-82
1756899364.417577,-53
1756899364.4213116,-32
1756899364.4216866,-26
1756899364.4237432,-28
1756899364.4265068,-26
1756899364.427334,-12
1756899364.42948,7
1756899364.4313147,18
1756899364.4409726,19
1756899364.441113,24
1756899364.4411628,40
1756899364.4412117,63
1756899364.4412594,78
1756899364.4431303,84
1756899364.4448833,93
1756899364.4467595,113
1756899364.4486492,130
1756899364.4506307,120
1756899364.452654,85
1756899364.4557352,51
1756899364.4565687,49
1756899364.458537,71
1756899364.4606016,85
1756899364.4629598,69
1756899364.4652524,43
1756899364.4670758,47
1756899364.4685073,91
1756899364.470479,145
1756899364.4724312,169
1756899364.4743967,159
1756899364.4764228,142
1756899364.4783745,145
1756899364.4803407,164
1756899364.4823098,174
1756899364.4842596,163
1756899364.4862947,138
1756899364.4881017,119
1756899364.4903576,117
1756899364.492232,131
1756899364.4942129,150
1756899364.4960296,160
1756899364.498,154
1756899364.5000308,148
1756899364.5054023,161
1756899364.5055633,193
1756899364.5057442,217
1756899364.5077329,207
1756899364.511641,166
1756899364.511754,132
1756899364.5205855,135
1756899364.5223725,165
1756899364.5224295,184
1756899364.522472,166
1756899364.5225136,123
1756899364.5237963,86
1756899364.5253537,75
1756899364.5273778,87
1756899364.5293372,105
1756899364.5312922,102
1756899364.5338554,62
1756899364.53517,-15
1756899364.5397232,-110
1756899364.539883,-200
1756899364.5411654,-274
1756899364.5431383,-343
1756899364.5450883,-424
1756899364.5473216,-518
1756899364.549021,-601
1756899364.5510066,-646
1756899364.5529408,-637
1756899364.5548744,-577
1756899364.556795,-479
1756899364.5587893,-362
1756899364.5606992,-241
1756899364.5626616,-123
1756899364.5646367,-9
1756899364.5667536,99
1756899364.5685587,192
1756899364.571273,262
1756899364.5724943,306
1756899364.574862,324
1756899364.5764434,321
1756899364.5783887,303
1756899364.5803926,274
1756899364.5825334,244
1756899364.5851252,222
1756899364.5863562,212
1756899364.5883207,208
1756899364.5904174,201
1756899364.5922127,188
1756899364.5941691,172
1756899364.596116,163
1756899364.5980291,165
1756899364.6000042,172
1756899364.6019645,171
1756899364.6040256,159
1756899364.6097436,146
1756899364.6100676,145
1756899364.6102126,158
1756899364.613341,174
1756899364.6142023,179
1756899364.6166127,170
1756899364.6177928,152
1756899364.6197464,131
1756899364.6217177,122
1756899364.623847,134
1756899364.6256478,166
1756899364.627613,190
1756899364.6304002,180
1756899364.6314492,140
1756899364.6335723,108
1756899364.6358025,117
1756899364.6374319,158
1756899364.6393595,183
1756899364.6413426,161
1756899364.6432388,111
1756899364.6452045,82
1756899364.6472316,97
1756899364.6491287,130
1756899364.6511078,140
1756899364.6548967,113
1756899364.6550314,74
1756899364.657044,57
1756899364.6590474,65
1756899364.6610138,81
1756899364.6629543,86
1756899364.664918,82
1756899364.6668637,84
1756899364.6691554,93
1756899364.6707869,102
1756899364.672769,98
1756899364.6750097,83
1756899364.6769247,70
1756899364.6788437,65
1756899364.680991,59
1756899364.684147,46
1756899364.6848524,29
1756899364.6870315,20
1756899364.6886065,22
1756899364.690821,25
1756899364.6925182,18
1756899364.6946042,10
1756899364.6965015,16
1756899364.7027018,36
1756899364.7028491,48
1756899364.7029552,40
1756899364.7042248,28
1756899364.7169492,36
1756899364.7171166,65
1756899364.7172365,88
1756899364.7173023,84
1756899364.718481,65
1756899364.7185745,59
1756899364.718622,77
1756899364.7200766,96
1756899364.721928,95
1756899364.7240357,73
1756899364.725981,46
1756899364.7278914,23
1756899364.7300434,5
1756899364.7318332,-10
1756899364.7338457,-15
1756899364.735946,-6
1756899364.7376974,7
1756899364.7398357,7
1756899364.7418656,-6
1756899364.7446127,-22
1756899364.7457798,-31
1756899364.7480187,-35
1756899364.7503326,-45
1756899364.751437,-65
1756899364.7536764,-86
1756899364.7555962,-98
1756899364.757536,-96
1756899364.7595403,-88
1756899364.7614684,-87
1756899364.7634273,-96
1756899364.7652602,-105
1756899364.7676697,-104
1756899364.7709587,-89
1756899364.771126,-77
1756899364.7733161,-83
1756899364.776699,-113
1756899364.7770028,-151
1756899364.7804964,-170
1756899364.7909877,-163
1756899364.7913246,-141
1756899364.791577,-123
1756899364.7917364,-124
1756899364.7918913,-143
1756899364.7920456,-167
1756899364.7927756,-178
1756899364.7947378,-178
1756899364.7968762,-182
1756899364.7987883,-204
1756899364.8017137,-238
1756899364.802758,-265
1756899364.8048346,-273
1756899364.8106172,-276
1756899364.8132117,-289
1756899364.8139725,-309
1756899364.8141317,-309
1756899364.8145182,-279
1756899364.8164415,-244
1756899364.819497,-241
1756899364.8204615,-278
1756899364.8223727,-317
1756899364.8255453,-317
1756899364.826181,-284
1756899364.8281994,-260
1756899364.8302882,-276
1756899364.8358934,-316
1756899364.8441694,-336
1756899364.8443358,-314
1756899364.844459,-271
1756899364.844577,-246
1756899364.84587,-251
1756899364.8460155,-262
1756899364.846137,-254
1756899364.8477602,-226
1756899364.8500116,-200
1756899364.8521867,-187
1756899364.8537464,-183
1756899364.855671,-178
1756899364.8576043,-170
1756899364.8597624,-164
1756899364.8616402,-157
1756899364.8636086,-141
1756899364.8654885,-119
1756899364.8680017,-109
1756899364.8855011,-115
1756899364.8861215,-122
1756899364.8862336,-106
1756899364.886705,-65
1756899364.8868089,-24
1756899364.8868961,-4
1756899364.8870144,1
1756899364.8871,14
1756899364.8871846,40
1756899364.8872688,60
1756899364.889807,59
1756899364.8921876,51
1756899364.8931208,63
1756899364.8949192,96
1756899364.8968742,126
1756899364.8988001,128
1756899364.9009109,111
1756899364.9028718,103
1756899364.905017,125
1756899364.92772,165
1756899364.9280128,195
1756899364.928577,197
1756899364.93348,180
1756899364.9336658,164
1756899364.9339478,162
1756899364.934148,175
1756899364.9343054,192
1756899364.9344594,201
1756899364.9346132,204
1756899364.9347658,205
1756899364.9349208,210
1756899364.9350798,216
1756899364.9353282,222
1756899364.936313,230
1756899364.9365945,241
1756899364.9382,253
1756899364.9401612,258
1756899364.9421458,250
1756899364.9442253,233
1756899364.946001,221
1756899364.9479368,225
1756899364.950151,241
1756899364.95201,258
1756899364.9538646,267
1756899364.9559007,265
1756899364.957794,261
1756899364.9597871,262
1756899364.9618998,270
1756899364.9662344,283
1756899364.9667563,291
1756899364.9686446,285
1756899364.9696443,267
1756899364.974731,250
1756899364.9748452,248
1756899364.9757051,260
1756899364.9776187,271
1756899364.9795227,267
1756899364.9815085,253
1756899364.983525,244
1756899364.9853337,250
1756899364.9874191,261
1756899364.9898794,268
1756899364.9914663,269
1756899364.993395,271
1756899364.9954503,277
1756899364.9973562,287
1756899364.9993525,301
1756899365.0013874,323
1756899365.003144,345
1756899365.0052829,350
1756899365.0093598,326
1756899365.009501,289
1756899365.0109584,264
1756899365.0130594,262
1756899365.0148575,263
1756899365.0172017,246
1756899365.018724,210
1756899365.0214732,184
1756899365.022663,185
1756899365.0246394,207
1756899365.0265973,226
1756899365.0303884,231
1756899365.030634,229
1756899365.0326328,233
1756899365.0346644,248
1756899365.0365376,263
1756899365.0383587,265
1756899365.0404837,249
1756899365.0427063,227
1756899365.0443122,218
1756899365.0463505,231
1756899365.0483267,247
1756899365.0503712,238
1756899365.0524442,201
1756899365.0545585,165
1756899365.0563848,163
1756899365.0587752,194
1756899365.0628426,222
1756899365.0631163,219
1756899365.0653076,196
1756899365.0663068,183
1756899365.068063,194
1756899365.0705802,211
1756899365.0719202,208
1756899365.0746531,187
1756899365.075862,166
1756899365.0782828,158
1756899365.079764,156
1756899365.0816991,147
1756899365.0840735,133
1756899365.0856519,127
1756899365.087664,140
1756899365.0909698,171
1756899365.1025321,206
1756899365.1027756,229
1756899365.1029732,233
1756899365.1167793,225
1756899365.120414,222
