1756899354.6766798,0,417.0
1756899354.6785924,0,419.0
1756899354.6803687,0,418.0
1756899354.682516,0,420.0
1756899354.6844137,0,422.0
1756899354.6862488,0,417.0
1756899354.6881888,0,403.0
1756899354.690151,0,389.0
1756899354.6920002,0,387.0
1756899354.6941867,0,397.0
1756899354.6962059,0,403.0
1756899354.6981783,0,389.0
1756899354.700166,0,360.0
1756899354.7021368,0,337.0
1756899354.7040832,0,341.0
1756899354.7060623,0,366.0
1756899354.7084777,0,383.0
1756899354.709984,0,374.0
1756899354.7119522,0,346.0
1756899354.7139003,0,331.0
1756899354.715836,0,343.0
1756899354.7179558,0,369.0
1756899354.7199702,0,385.0
1756899354.7219405,0,382.0
1756899354.7239091,0,370.0
1756899354.72577,0,366.0
1756899354.7278314,0,370.0
1756899354.7300847,0,371.0
1756899354.7315967,0,364.0
1756899354.733571,0,356.0
1756899354.7355611,0,358.0
1756899354.7375002,0,372.0
1756899354.7394788,0,384.0
1756899354.7415433,0,386.0
1756899354.7435534,0,382.0
1756899354.7455556,0,389.0
1756899354.7474988,0,413.0
1756899354.7497876,0,441.0
1756899354.7514331,0,451.0
1756899354.7532382,0,435.0
1756899354.7550998,0,407.0
1756899354.7571712,0,386.0
1756899354.759129,0,371.0
1756899354.7610743,0,348.0
1756899354.76317,0,310.0
1756899354.7649846,0,277.0
1756899354.7670598,0,270.0
1756899354.7726102,0,291.0
1756899354.7796195,0,317.0
1756899354.7798166,0,332.0
1756899354.7799757,0,344.0
1756899354.7801294,0,365.0
1756899354.782927,0,392.0
1756899354.7831223,0,408.0
1756899354.7832808,0,399.0
1756899354.7846866,0,376.0
1756899354.7867246,0,360.0
1756899354.7886581,0,352.0
1756899354.7909086,0,341.0
1756899354.7927291,0,318.0
1756899354.7946951,0,299.0
1756899354.7966747,0,304.0
1756899354.7986376,0,330.0
1756899354.8005972,0,354.0
1756899354.802603,0,353.0
1756899354.8045397,0,331.0
1756899354.8065112,0,315.0
1756899354.8084595,0,320.0
1756899354.8104184,0,336.0
1756899354.8123343,0,340.0
1756899354.814239,0,324.0
1756899354.8163276,0,303.0
1756899354.8183134,0,302.0
1756899354.8202527,0,324.0
1756899354.8223372,0,351.0
1756899354.8241904,0,361.0
1756899354.8263955,0,353.0
1756899354.8281102,0,343.0
1756899354.8300748,0,345.0
1756899354.8322637,0,352.0
1756899354.8340015,0,346.0
1756899354.8364327,0,315.0
1756899354.8382366,0,272.0
1756899354.8400054,0,245.0
1756899354.841891,0,251.0
1756899354.8438327,0,275.0
1756899354.8458636,0,285.0
1756899354.847792,0,266.0
1756899354.84973,0,234.0
1756899354.8517132,0,225.0
1756899354.8535976,0,250.0
1756899354.8557138,0,289.0
1756899354.8574705,0,307.0
1756899354.859808,0,289.0
1756899354.8615193,0,253.0
1756899354.8638005,0,232.0
1756899354.8655248,0,238.0
1756899354.8674266,0,257.0
1756899354.869397,0,266.0
1756899354.8713603,0,251.0
1756899354.8733158,0,221.0
1756899354.8753004,0,200.0
1756899354.877156,0,202.0
1756899354.8793738,0,220.0
1756899354.8869195,0,235.0
1756899354.8875332,0,237.0
1756899354.8881226,0,226.0
1756899354.8887265,0,217.0
1756899354.8893898,0,216.0
1756899354.8909984,0,216.0
1756899354.8929741,0,211.0
1756899354.8949652,0,204.0
1756899354.8969746,0,196.0
1756899354.898842,0,186.0
1756899354.9009364,0,171.0
1756899354.902816,0,156.0
1756899354.9047704,0,150.0
1756899354.90674,0,155.0
1756899354.90891,0,161.0
1756899354.9106581,0,155.0
1756899354.9126654,0,135.0
1756899354.9145148,0,115.0
1756899354.916661,0,106.0
1756899354.9184291,0,105.0
1756899354.9205139,0,102.0
1756899354.922542,0,86.0
1756899354.9245334,0,64.0
1756899354.926362,0,47.0
1756899354.9283528,0,44.0
1756899354.9303238,0,54.0
1756899354.9323606,0,65.0
1756899354.9344382,0,70.0
1756899354.9361107,0,75.0
1756899354.9381666,0,87.0
1756899354.9409497,0,113.0
1756899354.9420066,0,137.0
1756899354.944091,0,143.0
1756899354.9471452,0,134.0
1756899354.9481544,0,128.0
1756899354.9499729,0,140.0
1756899354.9519436,0,159.0
1756899354.9539125,0,161.0
1756899354.956008,0,143.0
1756899354.9579737,0,130.0
1756899354.9598193,0,147.0
1756899354.9618392,0,184.0
1756899354.9637332,0,206.0
1756899354.9652479,0,197.0
1756899354.968059,0,179.0
1756899354.969179,0,185.0
1756899354.971143,0,217.0
1756899354.973101,0,239.0
1756899354.975067,0,225.0
1756899354.9770937,0,189.0
1756899354.979012,0,169.0
1756899354.9810233,0,179.0
1756899354.9836879,0,195.0
1756899354.984948,0,189.0
1756899354.9869134,0,161.0
1756899354.9889188,0,142.0
1756899354.9908075,0,149.0
1756899354.992809,0,169.0
1756899354.9947717,0,173.0
1756899354.9967084,0,158.0
1756899354.9987268,0,146.0
1756899355.0006807,0,153.0
1756899355.0025985,0,171.0
1756899355.00461,0,181.0
1756899355.0065765,0,177.0
1756899355.0084429,0,171.0
1756899355.0105047,0,169.0
1756899355.012672,0,164.0
1756899355.014394,0,150.0
1756899355.0163956,0,144.0
1756899355.0183725,0,165.0
1756899355.0202963,0,204.0
1756899355.0223148,0,223.0
1756899355.0242693,0,200.0
1756899355.0261936,0,159.0
1756899355.028162,0,147.0
1756899355.0301657,0,177.0
1756899355.0321112,0,212.0
1756899355.0340889,0,207.0
1756899355.0360596,0,161.0
1756899355.03799,0,114.0
1756899355.0399847,0,97.0
1756899355.0419576,0,101.0
1756899355.0438778,0,99.0
1756899355.0458815,0,84.0
1756899355.047854,0,74.0
1756899355.0497758,0,81.0
1756899355.0517843,0,91.0
1756899355.053754,0,80.0
1756899355.055676,0,45.0
1756899355.057671,0,5.0
1756899355.0596426,0,-19.0
1756899355.0615745,0,-37.0
1756899355.0635686,0,-77.0
1756899355.0655644,0,-157.0
1756899355.0674143,0,-265.0
1756899355.0694907,0,-369.0
1756899355.0714486,0,-454.0
1756899355.073366,0,-522.0
1756899355.0754814,0,-581.0
1756899355.0773358,0,-628.0
1756899355.0792549,0,-649.0
1756899355.0812657,0,-635.0
1756899355.0831897,0,-585.0
1756899355.0854237,0,-502.0
1756899355.0871618,0,-391.0
1756899355.0891466,0,-260.0
1756899355.0910523,0,-125.0
1756899355.0930538,0,-1.0
1756899355.095028,0,104.0
1756899355.0969527,0,183.0
1756899355.0989141,0,233.0
1756899355.1009264,0,253.0
1756899355.1028402,0,251.0
1756899355.1048496,0,241.0
1756899355.1068184,0,231.0
1756899355.10876,0,219.0
1756899355.110742,0,202.0
1756899355.112712,0,183.0
1756899355.1146407,0,176.0
1756899355.1167321,0,186.0
1756899355.1185143,0,205.0
1756899355.1205065,0,219.0
1756899355.1225266,0,222.0
1756899355.1245077,0,220.0
1756899355.126491,0,215.0
1756899355.1284423,0,203.0
1756899355.1305182,0,183.0
1756899355.1323702,0,160.0
1756899355.1345243,0,144.0
1756899355.1362665,0,140.0
1756899355.138457,0,142.0
1756899355.1401894,0,141.0
1756899355.1422138,0,134.0
1756899355.1441169,0,130.0
1756899355.1461194,0,135.0
1756899355.1481056,0,147.0
1756899355.1500165,0,159.0
1756899355.1520305,0,164.0
1756899355.15399,0,166.0
1756899355.1559157,0,172.0
1756899355.157912,0,183.0
1756899355.159886,0,194.0
1756899355.161819,0,197.0
1756899355.163806,0,190.0
1756899355.165788,0,176.0
1756899355.167859,0,163.0
1756899355.1696618,0,154.0
1756899355.1716914,0,153.0
1756899355.1736128,0,156.0
1756899355.1755798,0,159.0
1756899355.177572,0,163.0
1756899355.1795118,0,170.0
1756899355.1814556,0,181.0
1756899355.183428,0,188.0
1756899355.185667,0,182.0
1756899355.1873968,0,164.0
1756899355.1893694,0,147.0
1756899355.1912985,0,140.0
1756899355.193291,0,140.0
1756899355.1952724,0,134.0
1756899355.1971378,0,121.0
1756899355.1992013,0,110.0
1756899355.2011056,0,115.0
1756899355.2030895,0,133.0
1756899355.205041,0,150.0
1756899355.2070067,0,158.0
1756899355.2090547,0,156.0
1756899355.210972,0,149.0
1756899355.2130008,0,142.0
1756899355.214926,0,132.0
1756899355.21693,0,121.0
1756899355.2188778,0,113.0
1756899355.220746,0,108.0
1756899355.2228267,0,107.0
1756899355.2247555,0,117.0
1756899355.2267497,0,136.0
1756899355.2287219,0,154.0
1756899355.230693,0,158.0
1756899355.232613,0,149.0
1756899355.2345688,0,142.0
1756899355.2365122,0,145.0
1756899355.2374787,1.330078125,145.0
1756899355.2384696,1.330078125,150.0
1756899355.2405145,1.330078125,133.0
1756899355.2424388,1.330078125,97.0
1756899355.2444384,1.330078125,69.0
1756899355.2464252,1.330078125,71.0
1756899355.248299,1.330078125,95.0
1756899355.250311,1.330078125,112.0
1756899355.2523105,1.330078125,103.0
1756899355.2542832,1.330078125,82.0
1756899355.2561612,1.330078125,69.0
1756899355.2582064,1.330078125,72.0
1756899355.2603006,1.330078125,76.0
1756899355.2620444,1.330078125,69.0
1756899355.264118,1.330078125,52.0
1756899355.2660291,1.330078125,36.0
1756899355.2680557,1.330078125,25.0
1756899355.2699575,1.330078125,20.0
1756899355.2719839,1.330078125,22.0
1756899355.273891,1.330078125,32.0
1756899355.2758653,1.330078125,50.0
1756899355.2778366,1.330078125,63.0
1756899355.2797544,1.330078125,58.0
1756899355.2817066,1.330078125,36.0
1756899355.2837238,1.330078125,15.0
1756899355.286813,1.330078125,11.0
1756899355.2876456,1.330078125,19.0
1756899355.2895598,1.330078125,19.0
1756899355.2917213,1.330078125,-2.0
1756899355.2935386,1.330078125,-29.0
1756899355.2938206,0.95751953125,-29.0
1756899355.2955425,0.95751953125,-38.0
1756899355.2974672,0.95751953125,-20.0
1756899355.2994835,0.95751953125,7.0
1756899355.30142,0.95751953125,19.0
1756899355.3033621,0.95751953125,8.0
1756899355.305385,0.95751953125,-15.0
1756899355.3073502,0.95751953125,-36.0
1756899355.3092735,0.95751953125,-51.0
1756899355.311235,0.95751953125,-63.0
1756899355.3132567,0.95751953125,-78.0
1756899355.3150659,0.95751953125,-99.0
1756899355.317121,0.95751953125,-130.0
1756899355.3191414,0.95751953125,-160.0
1756899355.3210647,0.95751953125,-168.0
1756899355.323025,0.95751953125,-145.0
1756899355.325009,0.95751953125,-108.0
1756899355.3269436,0.95751953125,-93.0
1756899355.3289752,0.95751953125,-117.0
1756899355.3309329,0.95751953125,-157.0
1756899355.3329005,0.95751953125,-178.0
1756899355.3348324,0.95751953125,-171.0
1756899355.3358245,0.60107421875,-171.0
1756899355.336763,0.60107421875,-162.0
1756899355.3387694,0.60107421875,-175.0
1756899355.3407588,0.60107421875,-197.0
1756899355.3426986,0.60107421875,-202.0
1756899355.3446932,0.60107421875,-185.0
1756899355.3466547,0.60107421875,-166.0
1756899355.3485744,0.60107421875,-164.0
1756899355.3505297,0.60107421875,-169.0
1756899355.3525524,0.60107421875,-166.0
1756899355.3544843,0.60107421875,-154.0
1756899355.3564448,0.60107421875,-149.0
1756899355.3583958,0.60107421875,-161.0
1756899355.3604202,0.60107421875,-181.0
1756899355.362253,0.60107421875,-195.0
1756899355.3643672,0.60107421875,-201.0
1756899355.3662713,0.60107421875,-199.0
1756899355.3682253,0.60107421875,-185.0
1756899355.3702102,0.60107421875,-156.0
1756899355.372199,0.60107421875,-123.0
1756899355.3741663,0.60107421875,-105.0
1756899355.3761003,0.60107421875,-98.0
1756899355.3781154,0.60107421875,-84.0
1756899355.380038,0.60107421875,-48.0
1756899355.382053,0.60107421875,-7.0
1756899355.3841088,0.60107421875,6.0
1756899355.3858972,0.60107421875,-13.0
1756899355.3863811,0.1514892578125,-13.0
1756899355.3878996,0.1514892578125,-35.0
1756899355.3898635,0.1514892578125,-30.0
1756899355.3918235,0.1514892578125,-2.0
1756899355.3939438,0.1514892578125,21.0
1756899355.3957856,0.1514892578125,24.0
1756899355.3977535,0.1514892578125,20.0
1756899355.3997278,0.1514892578125,31.0
1756899355.401674,0.1514892578125,59.0
1756899355.403612,0.1514892578125,89.0
1756899355.405594,0.1514892578125,109.0
1756899355.4075978,0.1514892578125,121.0
1756899355.4094787,0.1514892578125,132.0
1756899355.4115329,0.1514892578125,143.0
1756899355.4134545,0.1514892578125,155.0
1756899355.4154813,0.1514892578125,170.0
1756899355.4174242,0.1514892578125,193.0
1756899355.4193587,0.1514892578125,216.0
1756899355.4213176,0.1514892578125,231.0
1756899355.423314,0.1514892578125,240.0
1756899355.425251,0.1514892578125,253.0
1756899355.427238,0.1514892578125,273.0
1756899355.4292088,0.1514892578125,295.0
1756899355.4311788,0.1514892578125,308.0
1756899355.4331021,0.1514892578125,315.0
1756899355.4342296,-0.0283203125,315.0
1756899355.4351177,-0.0283203125,325.0
1756899355.4369602,-0.0283203125,338.0
1756899355.4390173,-0.0283203125,344.0
1756899355.440908,-0.0283203125,339.0
1756899355.4429324,-0.0283203125,334.0
1756899355.444883,-0.0283203125,342.0
1756899355.4468856,-0.0283203125,361.0
1756899355.4489021,-0.0283203125,377.0
1756899355.4507947,-0.0283203125,383.0
1756899355.452795,-0.0283203125,385.0
1756899355.4549165,-0.0283203125,392.0
1756899355.4566438,-0.0283203125,400.0
1756899355.458668,-0.0283203125,396.0
1756899355.4606602,-0.0283203125,381.0
1756899355.462544,-0.0283203125,373.0
1756899355.4645457,-0.0283203125,390.0
1756899355.4664822,-0.0283203125,420.0
1756899355.468416,-0.0283203125,439.0
1756899355.4704475,-0.0283203125,433.0
1756899355.4724233,-0.0283203125,416.0
1756899355.4744267,-0.0283203125,414.0
1756899355.4763665,-0.0283203125,433.0
1756899355.4784245,-0.0283203125,459.0
1756899355.480278,-0.0283203125,472.0
1756899355.4822567,-0.0283203125,468.0
1756899355.484208,-0.0283203125,454.0
1756899355.486219,-0.281982421875,454.0
1756899355.4869244,-0.281982421875,437.0
1756899355.4886546,-0.281982421875,423.0
1756899355.490148,-0.281982421875,415.0
1756899355.4921114,-0.281982421875,419.0
1756899355.4940722,-0.281982421875,434.0
1756899355.4960654,-0.281982421875,449.0
1756899355.4978683,-0.281982421875,453.0
1756899355.499969,-0.281982421875,443.0
1756899355.5019104,-0.281982421875,436.0
1756899355.5038524,-0.281982421875,442.0
1756899355.50587,-0.281982421875,458.0
1756899355.5078356,-0.281982421875,472.0
1756899355.5178788,-0.281982421875,472.0
1756899355.5182776,-0.281982421875,462.0
1756899355.5184803,-0.281982421875,447.0
1756899355.5190597,-0.281982421875,434.0
1756899355.5192635,-0.281982421875,426.0
1756899355.51946,-0.281982421875,431.0
1756899355.5222075,-0.281982421875,447.0
1756899355.5240142,-0.281982421875,463.0
1756899355.5255442,-0.281982421875,465.0
1756899355.5275059,-0.281982421875,451.0
1756899355.5294435,-0.281982421875,440.0
1756899355.5313823,-0.281982421875,452.0
1756899355.533492,-0.281982421875,482.0
1756899355.5341604,-0.6103515625,482.0
1756899355.5352726,-0.6103515625,504.0
1756899355.5373592,-0.6103515625,498.0
1756899355.5392547,-0.6103515625,469.0
1756899355.5413852,-0.6103515625,442.0
1756899355.5459192,-0.6103515625,438.0
1756899355.5469594,-0.6103515625,457.0
1756899355.5492415,-0.6103515625,474.0
1756899355.5496855,-0.6103515625,465.0
1756899355.5533304,-0.6103515625,429.0
1756899355.553651,-0.6103515625,389.0
1756899355.5651848,-0.6103515625,380.0
1756899355.565675,-0.6103515625,410.0
1756899355.5658777,-0.6103515625,448.0
1756899355.5660748,-0.6103515625,458.0
1756899355.5663643,-0.6103515625,433.0
1756899355.566563,-0.6103515625,407.0
1756899355.5667582,-0.6103515625,414.0
1756899355.568806,-0.6103515625,452.0
1756899355.5707133,-0.6103515625,483.0
1756899355.572872,-0.6103515625,479.0
1756899355.5745876,-0.6103515625,449.0
1756899355.5765347,-0.6103515625,426.0
1756899355.5784962,-0.6103515625,428.0
1756899355.5804985,-0.6103515625,444.0
1756899355.5842366,-0.6103515625,449.0
1756899355.584453,-0.6103515625,440.0
1756899355.5862691,-0.90966796875,440.0
1756899355.5866215,-0.90966796875,433.0
1756899355.58836,-0.90966796875,438.0
1756899355.5904055,-0.90966796875,447.0
1756899355.5923488,-0.90966796875,444.0
1756899355.594779,-0.90966796875,428.0
1756899355.596399,-0.90966796875,411.0
1756899355.600031,-0.90966796875,407.0
1756899355.628639,-0.90966796875,414.0
1756899355.6310341,-0.90966796875,420.0
1756899355.6341693,-1.03125,420.0
1756899355.6373107,-1.03125,422.0
1756899355.6383107,-1.03125,426.0
1756899355.6385388,-1.03125,433.0
1756899355.638781,-1.03125,436.0
1756899355.639054,-1.03125,428.0
1756899355.6393116,-1.03125,418.0
1756899355.6397774,-1.03125,420.0
1756899355.6401055,-1.03125,435.0
1756899355.6403997,-1.03125,439.0
1756899355.6406002,-1.03125,414.0
1756899355.6407957,-1.03125,373.0
1756899355.6409988,-1.03125,347.0
1756899355.6414053,-1.03125,353.0
1756899355.6416028,-1.03125,373.0
1756899355.6418056,-1.03125,380.0
1756899355.6423361,-1.03125,369.0
1756899355.6425805,-1.03125,358.0
1756899355.6428344,-1.03125,363.0
1756899355.6430316,-1.03125,374.0
1756899355.6432884,-1.03125,376.0
1756899355.64434,-1.03125,372.0
1756899355.6459599,-1.03125,378.0
1756899355.6488593,-1.03125,394.0
1756899355.6492803,-1.03125,402.0
1756899355.651233,-1.03125,384.0
1756899355.6582904,-1.03125,357.0
1756899355.6584313,-1.03125,353.0
1756899355.658508,-1.03125,386.0
1756899355.6591687,-1.03125,427.0
1756899355.6611562,-1.03125,437.0
1756899355.6644657,-1.03125,411.0
1756899355.664813,-1.03125,382.0
1756899355.666932,-1.03125,382.0
1756899355.669053,-1.03125,408.0
1756899355.670875,-1.03125,432.0
1756899355.6729612,-1.03125,436.0
1756899355.6757972,-1.03125,428.0
1756899355.6769252,-1.03125,420.0
1756899355.678908,-1.03125,413.0
1756899355.680862,-1.03125,404.0
1756899355.6828794,-1.03125,394.0
1756899355.684712,-1.03125,389.0
1756899355.6865754,-1.03125,390.0
1756899355.6868103,-0.8857421875,390.0
1756899355.6885514,-0.8857421875,388.0
1756899355.6919405,-0.8857421875,382.0
1756899355.6925013,-0.8857421875,382.0
1756899355.694481,-0.8857421875,397.0
1756899355.6963484,-0.8857421875,418.0
1756899355.6982915,-0.8857421875,431.0
1756899355.7003202,-0.8857421875,433.0
1756899355.7027164,-0.8857421875,437.0
1756899355.7047842,-0.8857421875,449.0
1756899355.7066212,-0.8857421875,456.0
1756899355.7083251,-0.8857421875,442.0
1756899355.7101011,-0.8857421875,411.0
1756899355.712026,-0.8857421875,382.0
1756899355.7141407,-0.8857421875,369.0
1756899355.7160168,-0.8857421875,365.0
1756899355.7180083,-0.8857421875,354.0
1756899355.7256238,-0.8857421875,337.0
1756899355.7267313,-0.8857421875,331.0
1756899355.727057,-0.8857421875,344.0
1756899355.7272592,-0.8857421875,366.0
1756899355.7278292,-0.8857421875,380.0
1756899355.7303815,-0.8857421875,381.0
1756899355.7318575,-0.8857421875,381.0
1756899355.7339559,-0.8857421875,390.0
1756899355.7342856,-0.580078125,390.0
1756899355.735748,-0.580078125,400.0
1756899355.7377253,-0.580078125,400.0
1756899355.739643,-0.580078125,389.0
1756899355.7415593,-0.580078125,382.0
1756899355.7435617,-0.580078125,389.0
1756899355.7455325,-0.580078125,400.0
1756899355.7475445,-0.580078125,394.0
1756899355.749621,-0.580078125,369.0
1756899355.7519968,-0.580078125,347.0
1756899355.7534547,-0.580078125,350.0
1756899355.755639,-0.580078125,371.0
1756899355.7582223,-0.580078125,383.0
1756899355.7593668,-0.580078125,371.0
1756899355.761483,-0.580078125,353.0
1756899355.7632518,-0.580078125,359.0
1756899355.7653775,-0.580078125,385.0
1756899355.7671626,-0.580078125,402.0
1756899355.7694747,-0.580078125,392.0
1756899355.7712848,-0.580078125,372.0
1756899355.7734435,-0.580078125,373.0
1756899355.7790036,-0.580078125,400.0
1756899355.7841423,-0.580078125,422.0
1756899355.7843714,-0.580078125,420.0
1756899355.784575,-0.580078125,410.0
1756899355.7847726,-0.580078125,420.0
1756899355.7889674,-0.580078125,446.0
1756899355.7894042,-0.580078125,457.0
1756899355.789653,-0.07177734375,457.0
1756899355.7896726,-0.07177734375,431.0
1756899355.7908132,-0.07177734375,390.0
1756899355.7933822,-0.07177734375,372.0
1756899355.7948275,-0.07177734375,383.0
1756899355.7967746,-0.07177734375,392.0
1756899355.7986224,-0.07177734375,372.0
1756899355.8058863,-0.07177734375,337.0
1756899355.8065112,-0.07177734375,325.0
1756899355.8067698,-0.07177734375,348.0
1756899355.8069763,-0.07177734375,376.0
1756899355.8086648,-0.07177734375,378.0
1756899355.8104405,-0.07177734375,354.0
1756899355.8129673,-0.07177734375,333.0
1756899355.8146608,-0.07177734375,333.0
1756899355.8163557,-0.07177734375,345.0
1756899355.818434,-0.07177734375,346.0
1756899355.821387,-0.07177734375,334.0
1756899355.82246,-0.07177734375,323.0
1756899355.82434,-0.07177734375,320.0
1756899355.826384,-0.07177734375,316.0
1756899355.8282452,-0.07177734375,300.0
1756899355.830394,-0.07177734375,278.0
1756899355.832177,-0.07177734375,263.0
1756899355.834329,-0.07177734375,263.0
1756899355.8350148,0.5419921875,263.0
1756899355.836112,0.5419921875,270.0
1756899355.8379562,0.5419921875,262.0
1756899355.8399234,0.5419921875,231.0
1756899355.841885,0.5419921875,186.0
1756899355.8440096,0.5419921875,154.0
1756899355.8458705,0.5419921875,154.0
1756899355.847962,0.5419921875,181.0
1756899355.8567977,0.5419921875,206.0
1756899355.8572867,0.5419921875,205.0
1756899355.8577535,0.5419921875,183.0
1756899355.8587236,0.5419921875,172.0
1756899355.8591733,0.5419921875,191.0
1756899355.8604593,0.5419921875,227.0
1756899355.8615222,0.5419921875,252.0
1756899355.8635292,0.5419921875,252.0
1756899355.8654845,0.5419921875,241.0
1756899355.8674188,0.5419921875,238.0
1756899355.869556,0.5419921875,242.0
1756899355.8713377,0.5419921875,240.0
1756899355.8735034,0.5419921875,228.0
1756899355.8752396,0.5419921875,221.0
1756899355.878565,0.5419921875,229.0
1756899355.8793032,0.5419921875,244.0
1756899355.8814127,0.5419921875,250.0
1756899355.884,0.5419921875,245.0
1756899355.8854632,0.5419921875,243.0
1756899355.8865173,0.9013671875,243.0
1756899355.88773,0.9013671875,259.0
1756899355.8898547,0.9013671875,290.0
1756899355.8910236,0.9013671875,321.0
1756899355.89451,0.9013671875,342.0
1756899355.89495,0.9013671875,355.0
1756899355.8969293,0.9013671875,360.0
1756899355.9223976,0.9013671875,355.0
1756899355.9226584,0.9013671875,341.0
1756899355.9228563,0.9013671875,325.0
1756899355.9230533,0.9013671875,321.0
1756899355.9232485,0.9013671875,327.0
1756899355.9234452,0.9013671875,331.0
1756899355.9236395,0.9013671875,319.0
1756899355.923838,0.9013671875,295.0
1756899355.9240317,0.9013671875,279.0
1756899355.924254,0.9013671875,288.0
1756899355.9244514,0.9013671875,320.0
1756899355.9246466,0.9013671875,352.0
1756899355.924842,0.9013671875,364.0
1756899355.925038,0.9013671875,361.0
1756899355.9286492,0.9013671875,361.0
1756899355.9290025,0.9013671875,375.0
1756899355.930363,0.9013671875,394.0
1756899355.9336023,0.9013671875,399.0
1756899355.9347775,1.083984375,399.0
1756899355.9367864,1.083984375,386.0
1756899355.937255,1.083984375,372.0
1756899355.9381955,1.083984375,375.0
1756899355.940169,1.083984375,387.0
1756899355.942159,1.083984375,389.0
1756899355.9441023,1.083984375,370.0
1756899355.9460595,1.083984375,350.0
1756899355.9517052,1.083984375,352.0
1756899355.9519951,1.083984375,376.0
1756899355.952256,1.083984375,396.0
1756899355.9538932,1.083984375,387.0
1756899355.957787,1.083984375,351.0
1756899355.9583561,1.083984375,317.0
1756899355.9598904,1.083984375,313.0
1756899355.962589,1.083984375,337.0
1756899355.9667647,1.083984375,362.0
1756899355.9669929,1.083984375,368.0
1756899355.9680684,1.083984375,351.0
1756899355.9710767,1.083984375,331.0
1756899355.9715726,1.083984375,328.0
1756899355.9736226,1.083984375,346.0
1756899355.9755409,1.083984375,369.0
1756899355.9774563,1.083984375,372.0
1756899355.9802296,1.083984375,346.0
1756899355.9814022,1.083984375,302.0
1756899355.9834504,1.083984375,266.0
1756899355.9853735,1.083984375,256.0
1756899355.9873943,1.083984375,266.0
1756899355.9893613,1.083984375,271.0
1756899355.990005,1.1044921875,271.0
1756899355.9934099,1.1044921875,254.0
1756899355.9936366,1.1044921875,222.0
1756899355.9957123,1.1044921875,193.0
1756899355.9972548,1.1044921875,175.0
1756899355.999127,1.1044921875,150.0
1756899356.0061908,1.1044921875,99.0
1756899356.0064254,1.1044921875,21.0
1756899356.006623,1.1044921875,-67.0
1756899356.0070083,1.1044921875,-151.0
1756899356.009578,1.1044921875,-233.0
1756899356.0109808,1.1044921875,-315.0
1756899356.013031,1.1044921875,-377.0
1756899356.0150206,1.1044921875,-391.0
1756899356.016859,1.1044921875,-347.0
1756899356.0187268,1.1044921875,-265.0
1756899356.0207486,1.1044921875,-171.0
1756899356.025263,1.1044921875,-67.0
1756899356.025538,1.1044921875,65.0
1756899356.0267384,1.1044921875,221.0
1756899356.0286255,1.1044921875,363.0
1756899356.0312607,1.1044921875,457.0
1756899356.0328646,1.1044921875,502.0
1756899356.0345237,1.1044921875,530.0
1756899356.034674,0.99072265625,530.0
1756899356.036587,0.99072265625,562.0
1756899356.0384617,0.99072265625,583.0
1756899356.040388,0.99072265625,569.0
1756899356.0424821,0.99072265625,526.0
1756899356.0443869,0.99072265625,484.0
1756899356.0463417,0.99072265625,466.0
1756899356.0513718,0.99072265625,463.0
1756899356.0516338,0.99072265625,456.0
1756899356.0521874,0.99072265625,441.0
1756899356.0542228,0.99072265625,430.0
1756899356.0561938,0.99072265625,427.0
1756899356.061049,0.99072265625,419.0
1756899356.0616302,0.99072265625,397.0
1756899356.0620577,0.99072265625,376.0
1756899356.0645406,0.99072265625,379.0
1756899356.0660398,0.99072265625,405.0
1756899356.067946,0.99072265625,427.0
1756899356.0699208,0.99072265625,420.0
1756899356.0718803,0.99072265625,392.0
1756899356.0740962,0.99072265625,372.0
1756899356.0757787,0.99072265625,378.0
1756899356.0777576,0.99072265625,397.0
1756899356.0797713,0.99072265625,405.0
1756899356.0817544,0.99072265625,388.0
1756899356.0836997,0.99072265625,356.0
1756899356.0856674,0.99072265625,323.0
1756899356.0872307,0.8251953125,323.0
1756899356.0875866,0.8251953125,297.0
1756899356.089628,0.8251953125,282.0
1756899356.0945296,0.8251953125,280.0
1756899356.0947785,0.8251953125,281.0
1756899356.0954344,0.8251953125,274.0
1756899356.0974462,0.8251953125,255.0
1756899356.099489,0.8251953125,236.0
1756899356.1012962,0.8251953125,236.0
1756899356.104383,0.8251953125,252.0
1756899356.1052365,0.8251953125,264.0
1756899356.1072876,0.8251953125,257.0
1756899356.1121001,0.8251953125,241.0
1756899356.1123548,0.8251953125,239.0
1756899356.113126,0.8251953125,253.0
1756899356.1151536,0.8251953125,266.0
1756899356.1170301,0.8251953125,263.0
1756899356.1190913,0.8251953125,253.0
1756899356.1210208,0.8251953125,253.0
1756899356.1229784,0.8251953125,263.0
1756899356.1249764,0.8251953125,265.0
1756899356.126948,0.8251953125,250.0
1756899356.1290581,0.8251953125,234.0
1756899356.1308463,0.8251953125,233.0
1756899356.1331272,0.8251953125,246.0
1756899356.1347275,0.408447265625,246.0
1756899356.1355214,0.408447265625,254.0
1756899356.13694,0.408447265625,247.0
1756899356.1387787,0.408447265625,235.0
1756899356.1407778,0.408447265625,232.0
1756899356.1425688,0.408447265625,242.0
1756899356.1463804,0.408447265625,256.0
1756899356.1464899,0.408447265625,261.0
1756899356.1490755,0.408447265625,250.0
1756899356.1521568,0.408447265625,226.0
1756899356.152524,0.408447265625,199.0
1756899356.1543913,0.408447265625,185.0
1756899356.1566854,0.408447265625,189.0
1756899356.1584885,0.408447265625,202.0
1756899356.160438,0.408447265625,201.0
1756899356.1631062,0.408447265625,176.0
1756899356.1641688,0.408447265625,143.0
1756899356.1663322,0.408447265625,126.0
1756899356.1682053,0.408447265625,134.0
1756899356.1700947,0.408447265625,149.0
1756899356.171956,0.408447265625,149.0
1756899356.1743052,0.408447265625,131.0
1756899356.1782193,0.408447265625,108.0
1756899356.1787624,0.408447265625,92.0
1756899356.1799767,0.408447265625,79.0
1756899356.1819792,0.408447265625,68.0
1756899356.183974,0.408447265625,62.0
1756899356.1859484,0.408447265625,64.0
1756899356.1882682,0.408447265625,69.0
1756899356.1898599,0.408447265625,63.0
1756899356.191816,0.408447265625,45.0
1756899356.1941137,0.408447265625,30.0
1756899356.1957517,0.408447265625,33.0
1756899356.196624,0.32861328125,33.0
1756899356.1977088,0.32861328125,52.0
1756899356.2033746,0.32861328125,60.0
1756899356.2228303,0.32861328125,44.0
1756899356.223674,0.32861328125,16.0
1756899356.224945,0.32861328125,1.0
1756899356.2256339,0.32861328125,7.0
1756899356.225855,0.32861328125,19.0
1756899356.2260528,0.32861328125,18.0
1756899356.2289126,0.32861328125,7.0
1756899356.229161,0.32861328125,1.0
1756899356.2317832,0.32861328125,4.0
1756899356.2320342,0.32861328125,7.0
1756899356.2322633,0.32861328125,6.0
1756899356.2324605,0.32861328125,1.0
1756899356.232658,0.32861328125,-6.0
1756899356.2328572,0.32861328125,-19.0
1756899356.233055,0.32861328125,-37.0
1756899356.2332518,0.32861328125,-52.0
1756899356.2339518,0.32861328125,-54.0
1756899356.235086,0.32861328125,-49.0
1756899356.237206,0.32861328125,-52.0
1756899356.2393796,-0.050445556640625,-52.0
1756899356.2421048,-0.050445556640625,-63.0
1756899356.2423356,-0.050445556640625,-69.0
1756899356.2452312,-0.050445556640625,-61.0
1756899356.2454617,-0.050445556640625,-57.0
1756899356.246735,-0.050445556640625,-73.0
1756899356.2511253,-0.050445556640625,-106.0
1756899356.2513902,-0.050445556640625,-130.0
1756899356.2527173,-0.050445556640625,-132.0
1756899356.254788,-0.050445556640625,-125.0
1756899356.256731,-0.050445556640625,-131.0
1756899356.2611854,-0.050445556640625,-150.0
1756899356.2614326,-0.050445556640625,-163.0
1756899356.2625284,-0.050445556640625,-158.0
1756899356.264427,-0.050445556640625,-145.0
1756899356.2665267,-0.050445556640625,-142.0
1756899356.268411,-0.050445556640625,-150.0
1756899356.2707696,-0.050445556640625,-162.0
1756899356.2723408,-0.050445556640625,-171.0
1756899356.2782397,-0.050445556640625,-183.0
1756899356.279402,-0.050445556640625,-201.0
1756899356.2796166,-0.050445556640625,-219.0
1756899356.2802007,-0.050445556640625,-225.0
1756899356.2822316,-0.050445556640625,-220.0
1756899356.2842276,-0.050445556640625,-215.0
1756899356.2862058,-0.050445556640625,-220.0
1756899356.2872767,-0.34716796875,-220.0
1756899356.288137,-0.34716796875,-233.0
1756899356.29008,-0.34716796875,-244.0
1756899356.292018,-0.34716796875,-243.0
1756899356.294034,-0.34716796875,-228.0
1756899356.3019125,-0.34716796875,-208.0
1756899356.3029385,-0.34716796875,-199.0
1756899356.3031416,-0.34716796875,-206.0
1756899356.3033373,-0.34716796875,-218.0
1756899356.3049893,-0.34716796875,-219.0
1756899356.311236,-0.34716796875,-203.0
1756899356.3258946,-0.34716796875,-180.0
1756899356.3268251,-0.34716796875,-169.0
1756899356.3270314,-0.34716796875,-170.0
1756899356.327729,-0.34716796875,-171.0
1756899356.3279285,-0.34716796875,-159.0
1756899356.32862,-0.34716796875,-133.0
1756899356.3288472,-0.34716796875,-105.0
1756899356.3297327,-0.34716796875,-88.0
1756899356.3311164,-0.34716796875,-82.0
1756899356.3313255,-0.34716796875,-80.0
1756899356.3317573,-0.34716796875,-70.0
1756899356.3319566,-0.34716796875,-48.0
1756899356.3321872,-0.34716796875,-22.0
1756899356.3347871,-0.34716796875,-8.0
1756899356.3350482,-0.73193359375,-8.0
1756899356.335577,-0.73193359375,-14.0
1756899356.337356,-0.73193359375,-30.0
1756899356.339217,-0.73193359375,-31.0
1756899356.3412445,-0.73193359375,-7.0
1756899356.3432596,-0.73193359375,28.0
1756899356.346245,-0.73193359375,50.0
1756899356.3471396,-0.73193359375,54.0
1756899356.3634276,-0.73193359375,57.0
1756899356.3680708,-0.73193359375,73.0
1756899356.368316,-0.73193359375,93.0
1756899356.3685164,-0.73193359375,100.0
1756899356.3687112,-0.73193359375,93.0
1756899356.3689313,-0.73193359375,91.0
1756899356.369417,-0.73193359375,107.0
1756899356.3696196,-0.73193359375,127.0
1756899356.369815,-0.73193359375,127.0
1756899356.3700113,-0.73193359375,102.0
1756899356.3702073,-0.73193359375,82.0
1756899356.3712542,-0.73193359375,95.0
1756899356.3726504,-0.73193359375,135.0
1756899356.3745959,-0.73193359375,168.0
1756899356.3765378,-0.73193359375,169.0
1756899356.3785017,-0.73193359375,146.0
1756899356.380534,-0.73193359375,126.0
1756899356.3824437,-0.73193359375,130.0
1756899356.3844306,-0.73193359375,152.0
1756899356.3864205,-0.73193359375,174.0
1756899356.3890831,-0.73193359375,182.0
1756899356.390483,-0.91552734375,182.0
1756899356.3940089,-0.91552734375,172.0
1756899356.3942358,-0.91552734375,156.0
1756899356.394433,-0.91552734375,149.0
1756899356.396146,-0.91552734375,162.0
1756899356.3983169,-0.91552734375,183.0
1756899356.4006302,-0.91552734375,194.0
1756899356.4077888,-0.91552734375,182.0
1756899356.408026,-0.91552734375,163.0
1756899356.408235,-0.91552734375,157.0
1756899356.4084313,-0.91552734375,169.0
1756899356.4104154,-0.91552734375,178.0
1756899356.4119072,-0.91552734375,170.0
1756899356.414349,-0.91552734375,160.0
1756899356.4160209,-0.91552734375,169.0
1756899356.4178932,-0.91552734375,199.0
1756899356.4198282,-0.91552734375,224.0
1756899356.421816,-0.91552734375,217.0
1756899356.42382,-0.91552734375,187.0
1756899356.4256022,-0.91552734375,171.0
1756899356.4279578,-0.91552734375,188.0
1756899356.429618,-0.91552734375,224.0
1756899356.4320903,-0.91552734375,246.0
1756899356.4343388,-0.91552734375,244.0
1756899356.434976,-1.025390625,244.0
1756899356.4358475,-1.025390625,233.0
1756899356.4375057,-1.025390625,234.0
1756899356.4395084,-1.025390625,248.0
1756899356.4416332,-1.025390625,259.0
1756899356.4515786,-1.025390625,255.0
1756899356.4521086,-1.025390625,241.0
1756899356.4543958,-1.025390625,229.0
1756899356.4546785,-1.025390625,223.0
1756899356.4549298,-1.025390625,221.0
1756899356.4551506,-1.025390625,218.0
1756899356.4553504,-1.025390625,217.0
1756899356.4573646,-1.025390625,219.0
1756899356.4618168,-1.025390625,226.0
1756899356.462365,-1.025390625,237.0
1756899356.4636316,-1.025390625,256.0
1756899356.4649546,-1.025390625,279.0
1756899356.4669003,-1.025390625,296.0
1756899356.4689326,-1.025390625,296.0
1756899356.47094,-1.025390625,280.0
1756899356.4729578,-1.025390625,259.0
1756899356.4749277,-1.025390625,249.0
1756899356.4767926,-1.025390625,249.0
1756899356.478723,-1.025390625,254.0
1756899356.4807193,-1.025390625,260.0
1756899356.4827766,-1.025390625,270.0
1756899356.4846165,-1.025390625,285.0
1756899356.4866047,-1.138671875,285.0
1756899356.4867167,-1.138671875,297.0
1756899356.5083325,-1.138671875,299.0
1756899356.513759,-1.138671875,295.0
1756899356.5146136,-1.138671875,300.0
1756899356.516973,-1.138671875,320.0
1756899356.5172546,-1.138671875,340.0
1756899356.517537,-1.138671875,339.0
1756899356.518083,-1.138671875,318.0
1756899356.519829,-1.138671875,302.0
1756899356.5200353,-1.138671875,314.0
1756899356.5202317,-1.138671875,352.0
1756899356.5204358,-1.138671875,390.0
1756899356.521187,-1.138671875,406.0
1756899356.5214753,-1.138671875,399.0
1756899356.521676,-1.138671875,388.0
1756899356.5218995,-1.138671875,392.0
1756899356.5245256,-1.138671875,410.0
1756899356.5253706,-1.138671875,430.0
1756899356.5260732,-1.138671875,441.0
1756899356.526411,-1.138671875,438.0
1756899356.5266085,-1.138671875,423.0
1756899356.5278795,-1.138671875,408.0
1756899356.5298657,-1.138671875,403.0
1756899356.531788,-1.138671875,412.0
1756899356.5341763,-1.138671875,424.0
1756899356.535964,-0.92236328125,424.0
1756899356.536892,-0.92236328125,422.0
1756899356.5382318,-0.92236328125,404.0
1756899356.5398283,-0.92236328125,390.0
1756899356.5415637,-0.92236328125,398.0
1756899356.5516746,-0.92236328125,425.0
1756899356.5546978,-0.92236328125,444.0
1756899356.554936,-0.92236328125,434.0
1756899356.555286,-0.92236328125,412.0
1756899356.5555282,-0.92236328125,406.0
1756899356.5557275,-0.92236328125,428.0
1756899356.555935,-0.92236328125,456.0
1756899356.5596137,-0.92236328125,465.0
1756899356.5599267,-0.92236328125,456.0
1756899356.5614545,-0.92236328125,450.0
1756899356.5632873,-0.92236328125,458.0
1756899356.5655158,-0.92236328125,467.0
1756899356.5722277,-0.92236328125,460.0
1756899356.5738852,-0.92236328125,449.0
1756899356.574335,-0.92236328125,453.0
1756899356.5745351,-0.92236328125,473.0
1756899356.5753376,-0.92236328125,487.0
1756899356.5773284,-0.92236328125,475.0
1756899356.5789895,-0.92236328125,451.0
1756899356.5809205,-0.92236328125,443.0
1756899356.5833538,-0.92236328125,454.0
1756899356.5848467,-0.92236328125,463.0
1756899356.586658,-1.1826171875,463.0
1756899356.5868835,-1.1826171875,448.0
1756899356.5888486,-1.1826171875,422.0
1756899356.5907936,-1.1826171875,419.0
1756899356.5927575,-1.1826171875,452.0
1756899356.6223378,-1.1826171875,495.0
1756899356.6274273,-1.1826171875,516.0
1756899356.6281426,-1.1826171875,506.0
1756899356.6284232,-1.1826171875,484.0
1756899356.6286976,-1.1826171875,471.0
1756899356.6290054,-1.1826171875,474.0
1756899356.6304135,-1.1826171875,482.0
1756899356.6306465,-1.1826171875,485.0
1756899356.6308756,-1.1826171875,480.0
1756899356.6310964,-1.1826171875,464.0
1756899356.6320546,-1.1826171875,444.0
1756899356.6323252,-1.1826171875,434.0
1756899356.6333642,-1.1826171875,448.0
1756899356.6335967,-1.1826171875,484.0
1756899356.6342072,-1.1826171875,514.0
1756899356.6345701,-1.1826171875,513.0
1756899356.6347942,-1.1826171875,484.0
1756899356.6350248,-1.1826171875,457.0
1756899356.6352434,-1.1826171875,458.0
1756899356.6354992,-1.1826171875,483.0
1756899356.6357486,-1.1826171875,502.0
1756899356.635983,-1.1826171875,498.0
1756899356.6372023,-1.0498046875,498.0
1756899356.637953,-1.0498046875,481.0
1756899356.6402516,-1.0498046875,474.0
1756899356.6547902,-1.0498046875,485.0
1756899356.6551442,-1.0498046875,501.0
1756899356.6554883,-1.0498046875,508.0
1756899356.6556995,-1.0498046875,506.0
1756899356.6558957,-1.0498046875,505.0
1756899356.6561015,-1.0498046875,509.0
1756899356.6562967,-1.0498046875,508.0
1756899356.6565053,-1.0498046875,495.0
1756899356.6583445,-1.0498046875,483.0
1756899356.661421,-1.0498046875,485.0
1756899356.661787,-1.0498046875,505.0
1756899356.6636794,-1.0498046875,524.0
1756899356.6655533,-1.0498046875,525.0
1756899356.6685362,-1.0498046875,508.0
1756899356.6694465,-1.0498046875,491.0
1756899356.671496,-1.0498046875,490.0
1756899356.6733735,-1.0498046875,500.0
1756899356.6753497,-1.0498046875,507.0
1756899356.6773207,-1.0498046875,502.0
1756899356.6792557,-1.0498046875,492.0
1756899356.681209,-1.0498046875,485.0
1756899356.6832082,-1.0498046875,485.0
1756899356.6851385,-1.0498046875,489.0
1756899356.6865587,0.12103271484375,489.0
1756899356.6871076,0.12103271484375,495.0
1756899356.689053,0.12103271484375,504.0
1756899356.6927426,0.12103271484375,511.0
1756899356.6930945,0.12103271484375,509.0
1756899356.6949623,0.12103271484375,488.0
1756899356.700773,0.12103271484375,457.0
1756899356.7023313,0.12103271484375,432.0
1756899356.7255402,0.12103271484375,426.0
1756899356.7360253,0.12103271484375,437.0
1756899356.7379692,1.1181640625,437.0
1756899356.7380736,1.1181640625,454.0
1756899356.7393754,1.1181640625,466.0
1756899356.7397795,1.1181640625,470.0
1756899356.7416627,1.1181640625,469.0
1756899356.7420115,1.1181640625,466.0
1756899356.7424865,1.1181640625,474.0
1756899356.7426922,1.1181640625,498.0
1756899356.7428896,1.1181640625,526.0
1756899356.743764,1.1181640625,537.0
1756899356.744052,1.1181640625,522.0
1756899356.7443159,1.1181640625,500.0
1756899356.7445834,1.1181640625,499.0
1756899356.745643,1.1181640625,519.0
1756899356.745846,1.1181640625,530.0
1756899356.7464077,1.1181640625,513.0
1756899356.7469177,1.1181640625,482.0
1756899356.74728,1.1181640625,467.0
1756899356.747483,1.1181640625,472.0
1756899356.7477827,1.1181640625,475.0
1756899356.7500587,1.1181640625,458.0
1756899356.7541716,1.1181640625,438.0
1756899356.754504,1.1181640625,435.0
1756899356.754715,1.1181640625,442.0
1756899356.754914,1.1181640625,435.0
1756899356.755111,1.1181640625,412.0
1756899356.755307,1.1181640625,399.0
1756899356.755979,1.1181640625,411.0
1756899356.7578862,1.1181640625,423.0
1756899356.7603576,1.1181640625,404.0
1756899356.7628882,1.1181640625,358.0
1756899356.763835,1.1181640625,329.0
1756899356.7658045,1.1181640625,342.0
1756899356.7677689,1.1181640625,370.0
1756899356.772355,1.1181640625,368.0
1756899356.772593,1.1181640625,327.0
1756899356.7736106,1.1181640625,290.0
1756899356.7756143,1.1181640625,293.0
1756899356.777532,1.1181640625,331.0
1756899356.7795439,1.1181640625,362.0
1756899356.7851605,1.1181640625,359.0
1756899356.7877169,1.2568359375,359.0
1756899356.7904904,1.2568359375,333.0
1756899356.790702,1.2568359375,316.0
1756899356.7909012,1.2568359375,322.0
1756899356.791098,1.2568359375,337.0
1756899356.7952797,1.2568359375,339.0
1756899356.795537,1.2568359375,322.0
1756899356.7957401,1.2568359375,302.0
1756899356.797193,1.2568359375,298.0
1756899356.799187,1.2568359375,310.0
1756899356.8040242,1.2568359375,324.0
1756899356.8078427,1.2568359375,323.0
1756899356.8080857,1.2568359375,310.0
1756899356.8082867,1.2568359375,300.0
1756899356.8089395,1.2568359375,302.0
1756899356.812309,1.2568359375,310.0
1756899356.8128414,1.2568359375,312.0
1756899356.8149724,1.2568359375,307.0
1756899356.8167825,1.2568359375,305.0
1756899356.8187182,1.2568359375,314.0
1756899356.8208113,1.2568359375,330.0
1756899356.8227775,1.2568359375,341.0
1756899356.824652,1.2568359375,347.0
1756899356.8266528,1.2568359375,356.0
1756899356.8287272,1.2568359375,374.0
1756899356.8310523,1.2568359375,396.0
1756899356.8326216,1.2568359375,410.0
1756899356.8345358,1.2568359375,413.0
1756899356.8371954,1.2568359375,411.0
1756899356.8421712,0.443115234375,411.0
1756899356.8462658,0.443115234375,410.0
1756899356.8465157,0.443115234375,408.0
1756899356.8467956,0.443115234375,401.0
1756899356.8470023,0.443115234375,388.0
1756899356.8471975,0.443115234375,381.0
1756899356.8483016,0.443115234375,387.0
1756899356.8548872,0.443115234375,399.0
1756899356.855301,0.443115234375,405.0
1756899356.856031,0.443115234375,402.0
1756899356.8562574,0.443115234375,401.0
1756899356.8581445,0.443115234375,413.0
1756899356.8601525,0.443115234375,430.0
1756899356.8631027,0.443115234375,437.0
1756899356.8640487,0.443115234375,431.0
1756899356.8664417,0.443115234375,421.0
1756899356.8678973,0.443115234375,419.0
1756899356.8699422,0.443115234375,424.0
1756899356.875098,0.443115234375,424.0
1756899356.8759117,0.443115234375,418.0
1756899356.8761535,0.443115234375,415.0
1756899356.877887,0.443115234375,424.0
1756899356.8799434,0.443115234375,437.0
1756899356.8819172,0.443115234375,442.0
1756899356.8836846,0.443115234375,431.0
1756899356.8857355,0.443115234375,412.0
1756899356.8867183,-0.01052093505859375,412.0
1756899356.8875906,-0.01052093505859375,400.0
1756899356.8897324,-0.01052093505859375,400.0
1756899356.8914568,-0.01052093505859375,409.0
1756899356.893485,-0.01052093505859375,415.0
1756899356.8954015,-0.01052093505859375,407.0
1756899356.8975756,-0.01052093505859375,388.0
1756899356.9025028,-0.01052093505859375,370.0
1756899356.9032266,-0.01052093505859375,365.0
1756899356.9034915,-0.01052093505859375,376.0
1756899356.9067647,-0.01052093505859375,390.0
1756899356.912933,-0.01052093505859375,392.0
1756899356.9147294,-0.01052093505859375,379.0
1756899356.9162402,-0.01052093505859375,361.0
1756899356.9165957,-0.01052093505859375,351.0
1756899356.9176478,-0.01052093505859375,355.0
1756899356.9178524,-0.01052093505859375,363.0
1756899356.9190538,-0.01052093505859375,359.0
1756899356.920994,-0.01052093505859375,337.0
1756899356.9229639,-0.01052093505859375,306.0
1756899356.924932,-0.01052093505859375,281.0
1756899356.9268982,-0.01052093505859375,270.0
1756899356.928881,-0.01052093505859375,262.0
1756899356.9311209,-0.01052093505859375,237.0
1756899356.9327884,-0.01052093505859375,189.0
1756899356.93472,-0.01052093505859375,128.0
1756899356.937011,-0.01052093505859375,65.0
1756899356.9387248,-0.01052093505859375,1.0
1756899356.9456518,-0.10443115234375,1.0
1756899356.9628246,-0.10443115234375,-73.0
1756899356.9631605,-0.10443115234375,-159.0
1756899356.9633796,-0.10443115234375,-248.0
1756899356.9635823,-0.10443115234375,-324.0
1756899356.9637818,-0.10443115234375,-376.0
1756899356.9639812,-0.10443115234375,-401.0
1756899356.96419,-0.10443115234375,-396.0
1756899356.964559,-0.10443115234375,-352.0
1756899356.9647744,-0.10443115234375,-268.0
1756899356.9649718,-0.10443115234375,-154.0
1756899356.9651687,-0.10443115234375,-28.0
1756899356.9653645,-0.10443115234375,92.0
1756899356.9655955,-0.10443115234375,199.0
1756899356.9665196,-0.10443115234375,292.0
1756899356.968177,-0.10443115234375,377.0
1756899356.970089,-0.10443115234375,451.0
1756899356.972221,-0.10443115234375,504.0
1756899356.9815245,-0.10443115234375,526.0
1756899356.981923,-0.10443115234375,514.0
1756899356.9821465,-0.10443115234375,480.0
1756899356.982344,-0.10443115234375,443.0
1756899356.9825377,-0.10443115234375,416.0
1756899356.9838855,-0.10443115234375,399.0
1756899356.985865,-0.10443115234375,391.0
1756899356.9861238,-0.2191162109375,391.0
1756899356.9878612,-0.2191162109375,386.0
1756899356.9903657,-0.2191162109375,381.0
1756899356.9918797,-0.2191162109375,374.0
1756899356.9937112,-0.2191162109375,361.0
1756899356.995704,-0.2191162109375,347.0
1756899356.9976535,-0.2191162109375,337.0
1756899357.0002174,-0.2191162109375,332.0
1756899357.0042746,-0.2191162109375,323.0
1756899357.00454,-0.2191162109375,309.0
1756899357.005613,-0.2191162109375,293.0
1756899357.007677,-0.2191162109375,282.0
1756899357.0136547,-0.2191162109375,282.0
1756899357.0138829,-0.2191162109375,292.0
1756899357.0140798,-0.2191162109375,306.0
1756899357.0158415,-0.2191162109375,319.0
1756899357.0175157,-0.2191162109375,326.0
1756899357.0192542,-0.2191162109375,328.0
1756899357.0214298,-0.2191162109375,326.0
1756899357.0232556,-0.2191162109375,326.0
1756899357.0251398,-0.2191162109375,326.0
1756899357.0271504,-0.2191162109375,320.0
1756899357.0290997,-0.2191162109375,305.0
1756899357.0310545,-0.2191162109375,286.0
1756899357.0330868,-0.2191162109375,274.0
1756899357.0350263,-0.2191162109375,273.0
1756899357.036956,-0.2191162109375,276.0
1756899357.038197,-0.44287109375,276.0
1756899357.0390332,-0.44287109375,273.0
1756899357.0408924,-0.44287109375,266.0
1756899357.0429118,-0.44287109375,263.0
1756899357.044861,-0.44287109375,265.0
1756899357.0469131,-0.44287109375,269.0
1756899357.0499194,-0.44287109375,266.0
1756899357.051289,-0.44287109375,254.0
1756899357.0547547,-0.44287109375,240.0
1756899357.0549927,-0.44287109375,230.0
1756899357.0566666,-0.44287109375,225.0
1756899357.0585992,-0.44287109375,219.0
1756899357.0605435,-0.44287109375,213.0
1756899357.0627272,-0.44287109375,211.0
1756899357.0644946,-0.44287109375,220.0
1756899357.0664458,-0.44287109375,238.0
1756899357.068484,-0.44287109375,256.0
1756899357.0705156,-0.44287109375,259.0
1756899357.0724053,-0.44287109375,249.0
1756899357.0744035,-0.44287109375,238.0
1756899357.0765934,-0.44287109375,241.0
1756899357.0815756,-0.44287109375,254.0
1756899357.0819743,-0.44287109375,264.0
1756899357.0823884,-0.44287109375,256.0
1756899357.0841968,-0.44287109375,243.0
1756899357.0861561,-0.44287109375,240.0
1756899357.086379,-0.75439453125,240.0
1756899357.0881784,-0.75439453125,249.0
1756899357.0900583,-0.75439453125,252.0
1756899357.0921586,-0.75439453125,236.0
1756899357.0980928,-0.75439453125,216.0
1756899357.0983257,-0.75439453125,216.0
1756899357.098523,-0.75439453125,240.0
1756899357.0999165,-0.75439453125,263.0
1756899357.1018755,-0.75439453125,262.0
1756899357.1068788,-0.75439453125,243.0
1756899357.1071467,-0.75439453125,231.0
1756899357.107793,-0.75439453125,239.0
1756899357.1100621,-0.75439453125,250.0
1756899357.1118658,-0.75439453125,244.0
1756899357.1136923,-0.75439453125,224.0
1756899357.1552691,-0.75439453125,211.0
1756899357.1588807,-0.75439453125,213.0
1756899357.1607974,-0.97314453125,213.0
1756899357.161341,-0.97314453125,219.0
1756899357.174783,-0.97314453125,210.0
1756899357.1750119,-0.97314453125,191.0
1756899357.1755567,-0.97314453125,185.0
1756899357.1761675,-0.97314453125,199.0
1756899357.17638,-0.97314453125,221.0
1756899357.1765776,-0.97314453125,232.0
1756899357.1767728,-0.97314453125,231.0
1756899357.1769702,-0.97314453125,233.0
1756899357.1771665,-0.97314453125,241.0
1756899357.1790948,-0.97314453125,238.0
1756899357.1793244,-0.97314453125,215.0
1756899357.1795347,-0.97314453125,186.0
1756899357.179743,-0.97314453125,177.0
1756899357.1799512,-0.97314453125,188.0
1756899357.1801584,-0.97314453125,191.0
1756899357.1804142,-0.97314453125,166.0
1756899357.1806247,-0.97314453125,128.0
1756899357.1808345,-0.97314453125,109.0
1756899357.1811361,-0.97314453125,125.0
1756899357.1813548,-0.97314453125,153.0
1756899357.1817124,-0.97314453125,167.0
1756899357.1822293,-0.97314453125,162.0
1756899357.1841083,-0.97314453125,152.0
1756899357.1844823,-0.97314453125,147.0
1756899357.1847508,-0.97314453125,148.0
1756899357.184992,-0.97314453125,151.0
1756899357.1852014,-0.97314453125,158.0
1756899357.1854348,-0.97314453125,162.0
1756899357.1856458,-0.97314453125,150.0
1756899357.185854,-0.97314453125,118.0
1756899357.186062,-0.97314453125,80.0
1756899357.1862721,-0.97314453125,61.0
1756899357.1865842,-0.97314453125,62.0
1756899357.1873724,-0.97314453125,62.0
1756899357.1881225,-1.0703125,62.0
1756899357.1886523,-1.0703125,43.0
1756899357.1904514,-1.0703125,11.0
1756899357.1923118,-1.0703125,-13.0
1756899357.1945198,-1.0703125,-21.0
1756899357.1962042,-1.0703125,-23.0
1756899357.1981938,-1.0703125,-31.0
1756899357.2011082,-1.0703125,-40.0
1756899357.2221167,-1.0703125,-41.0
1756899357.2226064,-1.0703125,-35.0
1756899357.2252853,-1.0703125,-31.0
1756899357.23858,-0.96923828125,-31.0
1756899357.266428,-0.96923828125,-36.0
1756899357.2735157,-0.96923828125,-45.0
1756899357.2737553,-0.96923828125,-49.0
1756899357.2739503,-0.96923828125,-50.0
1756899357.274146,-0.96923828125,-56.0
1756899357.2744439,-0.96923828125,-66.0
1756899357.2747753,-0.96923828125,-73.0
1756899357.27498,-0.96923828125,-72.0
1756899357.2751746,-0.96923828125,-64.0
1756899357.275368,-0.96923828125,-56.0
1756899357.2755897,-0.96923828125,-55.0
1756899357.2757864,-0.96923828125,-60.0
1756899357.2759862,-0.96923828125,-68.0
1756899357.276185,-0.96923828125,-74.0
1756899357.2763805,-0.96923828125,-75.0
1756899357.2766,-0.96923828125,-74.0
1756899357.2767944,-0.96923828125,-69.0
1756899357.2769878,-0.96923828125,-62.0
1756899357.2771833,-0.96923828125,-58.0
1756899357.277379,-0.96923828125,-58.0
1756899357.2775748,-0.96923828125,-54.0
1756899357.277772,-0.96923828125,-35.0
1756899357.2779667,-0.96923828125,4.0
1756899357.2781627,-0.96923828125,46.0
1756899357.2783577,-0.96923828125,68.0
1756899357.2785528,-0.96923828125,61.0
1756899357.27887,-0.96923828125,46.0
1756899357.2790701,-0.96923828125,55.0
1756899357.279267,-0.96923828125,89.0
1756899357.2794623,-0.96923828125,118.0
1756899357.2796557,-0.96923828125,117.0
1756899357.2798493,-0.96923828125,96.0
1756899357.2800438,-0.96923828125,85.0
1756899357.2802382,-0.96923828125,100.0
1756899357.2804327,-0.96923828125,124.0
1756899357.2806282,-0.96923828125,135.0
1756899357.2808394,-0.96923828125,143.0
1756899357.2810485,-0.96923828125,165.0
1756899357.284167,-0.96923828125,202.0
1756899357.2846458,-0.96923828125,229.0
1756899357.2868192,-0.96923828125,231.0
1756899357.289298,-0.96923828125,225.0
1756899357.289591,-0.43994140625,225.0
1756899357.2911398,-0.43994140625,235.0
1756899357.2924104,-0.43994140625,263.0
1756899357.2957668,-0.43994140625,286.0
1756899357.2975097,-0.43994140625,291.0
1756899357.2982185,-0.43994140625,290.0
1756899357.3023324,-0.43994140625,302.0
1756899357.3051133,-0.43994140625,324.0
1756899357.3056886,-0.43994140625,341.0
1756899357.3061416,-0.43994140625,347.0
1756899357.3139741,-0.43994140625,352.0
1756899357.314081,-0.43994140625,364.0
1756899357.3141263,-0.43994140625,372.0
1756899357.3141713,-0.43994140625,360.0
1756899357.3162704,-0.43994140625,335.0
1756899357.3179648,-0.43994140625,318.0
1756899357.3199365,-0.43994140625,321.0
1756899357.3218863,-0.43994140625,332.0
1756899357.3240578,-0.43994140625,332.0
1756899357.325929,-0.43994140625,315.0
1756899357.3284602,-0.43994140625,300.0
1756899357.330364,-0.43994140625,306.0
1756899357.3316472,-0.43994140625,330.0
1756899357.333668,-0.43994140625,357.0
1756899357.33585,-0.43994140625,371.0
1756899357.3386219,0.3671875,371.0
1756899357.3392205,0.3671875,368.0
1756899357.339507,0.3671875,363.0
1756899357.3415422,0.3671875,371.0
1756899357.3434665,0.3671875,396.0
1756899357.345467,0.3671875,422.0
1756899357.3474107,0.3671875,427.0
1756899357.3493145,0.3671875,411.0
1756899357.3513362,0.3671875,394.0
1756899357.3547246,0.3671875,398.0
1756899357.3552074,0.3671875,423.0
1756899357.3571982,0.3671875,438.0
1756899357.3606663,0.3671875,422.0
1756899357.3611476,0.3671875,383.0
1756899357.3649387,0.3671875,357.0
1756899357.365044,0.3671875,360.0
1756899357.3696234,0.3671875,377.0
1756899357.3697839,0.3671875,378.0
1756899357.370963,0.3671875,355.0
1756899357.3729115,0.3671875,334.0
1756899357.3748956,0.3671875,339.0
1756899357.3771613,0.3671875,368.0
1756899357.379782,0.3671875,393.0
1756899357.3809588,0.3671875,394.0
1756899357.3827696,0.3671875,377.0
1756899357.3847253,0.3671875,364.0
1756899357.3867157,0.3671875,370.0
1756899357.3868635,1.0458984375,370.0
1756899357.3886945,1.0458984375,383.0
1756899357.3907783,1.0458984375,384.0
1756899357.393257,1.0458984375,367.0
1756899357.3965445,1.0458984375,342.0
1756899357.3969173,1.0458984375,322.0
1756899357.3986528,1.0458984375,316.0
1756899357.4004993,1.0458984375,318.0
1756899357.4034202,1.0458984375,318.0
1756899357.4044693,1.0458984375,313.0
1756899357.4064748,1.0458984375,307.0
1756899357.4084203,1.0458984375,305.0
1756899357.4104314,1.0458984375,309.0
1756899357.4123955,1.0458984375,315.0
1756899357.4147663,1.0458984375,321.0
1756899357.4161627,1.0458984375,328.0
1756899357.4181662,1.0458984375,338.0
1756899357.4206142,1.0458984375,350.0
1756899357.4222038,1.0458984375,361.0
1756899357.4240212,1.0458984375,363.0
1756899357.4261112,1.0458984375,355.0
1756899357.4281006,1.0458984375,338.0
1756899357.430114,1.0458984375,319.0
1756899357.434379,1.0458984375,309.0
1756899357.4344997,1.0458984375,311.0
1756899357.435841,1.0458984375,312.0
1756899357.436036,0.982421875,312.0
1756899357.437789,0.982421875,301.0
1756899357.4398158,0.982421875,273.0
1756899357.4418237,0.982421875,243.0
1756899357.4450479,0.982421875,229.0
1756899357.44569,0.982421875,244.0
1756899357.44802,0.982421875,275.0
1756899357.4503667,0.982421875,300.0
1756899357.4515676,0.982421875,297.0
1756899357.4536345,0.982421875,272.0
1756899357.455495,0.982421875,249.0
1756899357.4574838,0.982421875,250.0
1756899357.4596674,0.982421875,269.0
1756899357.461368,0.982421875,275.0
1756899357.463499,0.982421875,252.0
1756899357.4653358,0.982421875,214.0
1756899357.4674113,0.982421875,185.0
1756899357.4695106,0.982421875,173.0
1756899357.4738793,0.982421875,165.0
1756899357.4740326,0.982421875,152.0
1756899357.4773011,0.982421875,142.0
1756899357.477442,0.982421875,143.0
1756899357.479107,0.982421875,146.0
1756899357.4812846,0.982421875,139.0
1756899357.4836557,0.982421875,127.0
1756899357.4851189,0.982421875,129.0
1756899357.486055,0.09869384765625,129.0
1756899357.486993,0.09869384765625,148.0
1756899357.4889808,0.09869384765625,164.0
1756899357.491085,0.09869384765625,154.0
1756899357.4929936,0.09869384765625,131.0
1756899357.4948525,0.09869384765625,125.0
1756899357.4969182,0.09869384765625,143.0
1756899357.498858,0.09869384765625,161.0
1756899357.500986,0.09869384765625,152.0
1756899357.5072587,0.09869384765625,129.0
1756899357.5074067,0.09869384765625,122.0
1756899357.5075614,0.09869384765625,140.0
1756899357.5095499,0.09869384765625,157.0
1756899357.510537,0.09869384765625,150.0
1756899357.513191,0.09869384765625,127.0
1756899357.5144887,0.09869384765625,113.0
1756899357.5193114,0.09869384765625,120.0
1756899357.520697,0.09869384765625,129.0
1756899357.5213675,0.09869384765625,121.0
1756899357.5222938,0.09869384765625,102.0
1756899357.524319,0.09869384765625,92.0
1756899357.526318,0.09869384765625,96.0
1756899357.5282357,0.09869384765625,103.0
1756899357.5302658,0.09869384765625,102.0
1756899357.5322638,0.09869384765625,94.0
1756899357.534277,0.09869384765625,86.0
1756899357.5355859,-0.37744140625,86.0
1756899357.5363033,-0.37744140625,79.0
1756899357.53835,-0.37744140625,69.0
1756899357.540281,-0.37744140625,60.0
1756899357.543336,-0.37744140625,56.0
1756899357.5440016,-0.37744140625,54.0
1756899357.5461965,-0.37744140625,44.0
1756899357.5480294,-0.37744140625,24.0
1756899357.5499253,-0.37744140625,7.0
1756899357.5519814,-0.37744140625,5.0
1756899357.5575588,-0.37744140625,14.0
1756899357.5576694,-0.37744140625,19.0
1756899357.557737,-0.37744140625,11.0
1756899357.55979,-0.37744140625,-1.0
1756899357.561747,-0.37744140625,-2.0
1756899357.5636892,-0.37744140625,9.0
1756899357.5656993,-0.37744140625,22.0
1756899357.5678265,-0.37744140625,31.0
1756899357.5696692,-0.37744140625,37.0
1756899357.5717435,-0.37744140625,41.0
1756899357.5735629,-0.37744140625,41.0
1756899357.5762336,-0.37744140625,36.0
1756899357.5774796,-0.37744140625,37.0
1756899357.5796478,-0.37744140625,52.0
1756899357.5843534,0.9873046875,52.0
1756899357.585518,0.9873046875,74.0
1756899357.585636,0.9873046875,86.0
1756899357.5857182,0.9873046875,84.0
1756899357.5872226,0.9873046875,82.0
1756899357.5891764,0.9873046875,92.0
1756899357.5911875,0.9873046875,111.0
1756899357.5930676,0.9873046875,123.0
1756899357.6015866,0.9873046875,120.0
1756899357.6019564,0.9873046875,111.0
1756899357.602036,0.9873046875,106.0
1756899357.6021209,0.9873046875,99.0
1756899357.6030202,0.9873046875,82.0
1756899357.6071374,0.9873046875,58.0
1756899357.607816,0.9873046875,42.0
1756899357.608898,0.9873046875,39.0
1756899357.6111386,0.9873046875,44.0
1756899357.613706,0.9873046875,49.0
1756899357.615066,0.9873046875,52.0
1756899357.624518,0.9873046875,60.0
1756899357.624615,0.9873046875,74.0
1756899357.6246839,0.9873046875,89.0
1756899357.6247509,0.9873046875,100.0
1756899357.6248174,0.9873046875,106.0
1756899357.6265354,0.9873046875,110.0
1756899357.628518,0.9873046875,108.0
1756899357.630498,0.9873046875,98.0
1756899357.6324952,0.9873046875,86.0
1756899357.6348603,0.9873046875,77.0
1756899357.6356711,1.1318359375,77.0
1756899357.6363611,1.1318359375,74.0
1756899357.6382506,1.1318359375,73.0
1756899357.6402488,1.1318359375,72.0
1756899357.6421814,1.1318359375,73.0
1756899357.644136,1.1318359375,83.0
1756899357.6461484,1.1318359375,97.0
1756899357.648115,1.1318359375,103.0
1756899357.6501675,1.1318359375,97.0
1756899357.6520386,1.1318359375,92.0
1756899357.6555436,1.1318359375,104.0
1756899357.6560216,1.1318359375,133.0
1756899357.658846,1.1318359375,159.0
1756899357.6598954,1.1318359375,164.0
1756899357.6620278,1.1318359375,153.0
1756899357.6664476,1.1318359375,147.0
1756899357.6665752,1.1318359375,159.0
1756899357.6677594,1.1318359375,181.0
1756899357.669726,1.1318359375,197.0
1756899357.6717026,1.1318359375,198.0
1756899357.6742258,1.1318359375,186.0
1756899357.6755958,1.1318359375,171.0
1756899357.6795542,1.1318359375,159.0
1756899357.6800764,1.1318359375,155.0
1756899357.6815004,1.1318359375,162.0
1756899357.683487,1.1318359375,168.0
1756899357.686334,1.1318359375,155.0
1756899357.6874025,1.1318359375,120.0
1756899357.6893718,1.1318359375,85.0
1756899357.6913218,1.1318359375,80.0
1756899357.6933444,1.1318359375,102.0
1756899357.69613,1.1318359375,121.0
1756899357.6973107,1.1318359375,110.0
1756899357.6974883,1.06640625,110.0
1756899357.6997192,1.06640625,79.0
1756899357.701271,1.06640625,60.0
1756899357.7039585,1.06640625,66.0
1756899357.705176,1.06640625,78.0
1756899357.7077034,1.06640625,77.0
1756899357.7091093,1.06640625,64.0
1756899357.711081,1.06640625,55.0
1756899357.713591,1.06640625,60.0
1756899357.7149808,1.06640625,70.0
1756899357.7170327,1.06640625,77.0
1756899357.7189794,1.06640625,76.0
1756899357.7218506,1.06640625,64.0
1756899357.722877,1.06640625,39.0
1756899357.7247987,1.06640625,14.0
1756899357.7267091,1.06640625,8.0
1756899357.735689,1.06640625,25.0
1756899357.7357786,1.06640625,36.0
1756899357.735823,1.06640625,11.0
1756899357.735867,1.06640625,-39.0
1756899357.7369244,1.06640625,-68.0
1756899357.738151,0.49755859375,-68.0
1756899357.7386723,0.49755859375,-48.0
1756899357.741471,0.49755859375,0.0
1756899357.7428818,0.49755859375,26.0
1756899357.7447188,0.49755859375,13.0
1756899357.7477543,0.49755859375,-5.0
1756899357.7486258,0.49755859375,4.0
1756899357.7510576,0.49755859375,39.0
1756899357.7527716,0.49755859375,71.0
1756899357.7569315,0.49755859375,80.0
1756899357.7571347,0.49755859375,76.0
1756899357.7586887,0.49755859375,77.0
1756899357.7604382,0.49755859375,82.0
1756899357.7623806,0.49755859375,80.0
1756899357.7643645,0.49755859375,70.0
1756899357.7663736,0.49755859375,65.0
1756899357.7686558,0.49755859375,75.0
1756899357.770185,0.49755859375,94.0
1756899357.7722092,0.49755859375,108.0
1756899357.7743747,0.49755859375,113.0
1756899357.776117,0.49755859375,118.0
1756899357.7780385,0.49755859375,130.0
1756899357.7883139,0.49755859375,156.0
1756899357.7889636,0.49755859375,190.0
1756899357.7901862,-0.032470703125,190.0
1756899357.7918375,-0.032470703125,220.0
1756899357.7926161,-0.032470703125,232.0
1756899357.7933547,-0.032470703125,224.0
1756899357.815971,-0.032470703125,208.0
1756899357.8161583,-0.032470703125,205.0
1756899357.8163154,-0.032470703125,220.0
1756899357.8175287,-0.032470703125,237.0
1756899357.8180723,-0.032470703125,239.0
1756899357.8182385,-0.032470703125,224.0
1756899357.81843,-0.032470703125,211.0
1756899357.8186336,-0.032470703125,217.0
1756899357.818854,-0.032470703125,235.0
1756899357.819112,-0.032470703125,247.0
1756899357.8390548,-0.2410888671875,247.0
1756899357.8422577,-0.2410888671875,242.0
1756899357.8423665,-0.2410888671875,227.0
1756899357.8424196,-0.2410888671875,213.0
1756899357.842472,-0.2410888671875,201.0
1756899357.8425243,-0.2410888671875,192.0
1756899357.842575,-0.2410888671875,192.0
1756899357.8426423,-0.2410888671875,203.0
1756899357.8426933,-0.2410888671875,214.0
1756899357.8427453,-0.2410888671875,210.0
1756899357.8427968,-0.2410888671875,194.0
1756899357.842848,-0.2410888671875,190.0
1756899357.842899,-0.2410888671875,216.0
1756899357.8429518,-0.2410888671875,261.0
1756899357.8430023,-0.2410888671875,290.0
1756899357.8430536,-0.2410888671875,284.0
1756899357.843105,-0.2410888671875,262.0
1756899357.8431554,-0.2410888671875,261.0
1756899357.843207,-0.2410888671875,288.0
1756899357.8452432,-0.2410888671875,317.0
1756899357.8469205,-0.2410888671875,324.0
1756899357.8488302,-0.2410888671875,314.0
1756899357.8506925,-0.2410888671875,312.0
1756899357.8527358,-0.2410888671875,327.0
1756899357.8560178,-0.2410888671875,338.0
1756899357.8597069,-0.2410888671875,326.0
1756899357.860134,-0.2410888671875,298.0
1756899357.861309,-0.2410888671875,281.0
1756899357.862678,-0.2410888671875,285.0
1756899357.8654463,-0.2410888671875,290.0
1756899357.8668036,-0.2410888671875,276.0
1756899357.8694618,-0.2410888671875,245.0
1756899357.8705182,-0.2410888671875,219.0
1756899357.8723755,-0.2410888671875,203.0
1756899357.874842,-0.2410888671875,185.0
1756899357.8764038,-0.2410888671875,151.0
1756899357.8786616,-0.2410888671875,109.0
1756899357.8802285,-0.2410888671875,68.0
1756899357.8823674,-0.2410888671875,21.0
1756899357.8843842,-0.2410888671875,-49.0
1756899357.886324,-0.2410888671875,-141.0
1756899357.8867588,-0.363037109375,-141.0
1756899357.8880124,-0.363037109375,-234.0
1756899357.8905303,-0.363037109375,-311.0
1756899357.8919399,-0.363037109375,-379.0
1756899357.894841,-0.363037109375,-453.0
1756899357.8959978,-0.363037109375,-530.0
1756899357.8982053,-0.363037109375,-590.0
1756899357.900608,-0.363037109375,-618.0
1756899357.9018424,-0.363037109375,-611.0
1756899357.903783,-0.363037109375,-573.0
1756899357.9062183,-0.363037109375,-494.0
1756899357.9076843,-0.363037109375,-369.0
1756899357.90965,-0.363037109375,-218.0
1756899357.9118655,-0.363037109375,-79.0
1756899357.9137895,-0.363037109375,24.0
1756899357.9165945,-0.363037109375,100.0
1756899357.9175727,-0.363037109375,175.0
1756899357.9196196,-0.363037109375,254.0
1756899357.9214191,-0.363037109375,320.0
1756899357.9235523,-0.363037109375,348.0
1756899357.9263146,-0.363037109375,333.0
1756899357.9273868,-0.363037109375,294.0
1756899357.9295185,-0.363037109375,256.0
1756899357.9313154,-0.363037109375,241.0
1756899357.93338,-0.363037109375,248.0
1756899357.9352195,-0.363037109375,264.0
1756899357.9373896,-0.363037109375,272.0
1756899357.938618,-0.58447265625,272.0
1756899357.9391427,-0.58447265625,269.0
1756899357.9414942,-0.58447265625,268.0
1756899357.9430623,-0.58447265625,286.0
1756899357.945003,-0.58447265625,319.0
1756899357.9469893,-0.58447265625,348.0
1756899357.9495447,-0.58447265625,350.0
1756899357.9512792,-0.58447265625,327.0
1756899357.9529183,-0.58447265625,299.0
1756899357.9548793,-0.58447265625,284.0
1756899357.956828,-0.58447265625,283.0
1756899357.9588337,-0.58447265625,281.0
1756899357.9607909,-0.58447265625,264.0
1756899357.9628413,-0.58447265625,235.0
1756899357.964994,-0.58447265625,214.0
1756899357.9667795,-0.58447265625,217.0
1756899357.96861,-0.58447265625,240.0
1756899357.9706779,-0.58447265625,263.0
1756899357.972896,-0.58447265625,270.0
1756899357.9753196,-0.58447265625,264.0
1756899357.9764745,-0.58447265625,267.0
1756899357.9785655,-0.58447265625,288.0
1756899357.9804654,-0.58447265625,312.0
1756899357.9824026,-0.58447265625,313.0
1756899357.984399,-0.58447265625,285.0
1756899357.986389,-0.58447265625,249.0
1756899357.9871135,-0.80029296875,249.0
1756899357.9882843,-0.80029296875,230.0
1756899357.990353,-0.80029296875,229.0
1756899358.0128584,-0.80029296875,228.0
1756899358.0133142,-0.80029296875,211.0
1756899358.0139432,-0.80029296875,192.0
1756899358.014428,-0.80029296875,194.0
1756899358.0146842,-0.80029296875,226.0
1756899358.0148833,-0.80029296875,263.0
1756899358.0150783,-0.80029296875,278.0
1756899358.0154042,-0.80029296875,268.0
1756899358.0157554,-0.80029296875,252.0
1756899358.0159526,-0.80029296875,251.0
1756899358.016755,-0.80029296875,259.0
1756899358.0170736,-0.80029296875,259.0
1756899358.0173893,-0.80029296875,244.0
1756899358.022111,-0.80029296875,222.0
1756899358.022451,-0.80029296875,213.0
1756899358.022655,-0.80029296875,222.0
1756899358.0304904,-0.80029296875,239.0
1756899358.0312417,-0.80029296875,247.0
1756899358.0320256,-0.80029296875,240.0
1756899358.0328288,-0.80029296875,225.0
1756899358.0330594,-0.80029296875,218.0
1756899358.0335867,-0.80029296875,232.0
1756899358.0355527,-0.80029296875,261.0
1756899358.037548,-0.80029296875,278.0
1756899358.0387814,-0.9453125,278.0
1756899358.0394616,-0.9453125,259.0
1756899358.0414312,-0.9453125,210.0
1756899358.043406,-0.9453125,173.0
1756899358.0453591,-0.9453125,183.0
1756899358.0473049,-0.9453125,231.0
1756899358.0492892,-0.9453125,268.0
1756899358.053196,-0.9453125,254.0
1756899358.0535603,-0.9453125,203.0
1756899358.065905,-0.9453125,169.0
1756899358.0662007,-0.9453125,183.0
1756899358.0664012,-0.9453125,221.0
1756899358.066596,-0.9453125,238.0
1756899358.0668259,-0.9453125,213.0
1756899358.067023,-0.9453125,171.0
1756899358.067218,-0.9453125,154.0
1756899358.0789275,-0.9453125,171.0
1756899358.0791757,-0.9453125,194.0
1756899358.0793734,-0.9453125,192.0
1756899358.0795705,-0.9453125,163.0
1756899358.080203,-0.9453125,137.0
1756899358.0806096,-0.9453125,142.0
1756899358.0809114,-0.9453125,171.0
1756899358.082764,-0.9453125,190.0
1756899358.0846217,-0.9453125,174.0
1756899358.0865715,-0.9453125,135.0
1756899358.086662,-0.99072265625,135.0
1756899358.0885506,-0.99072265625,105.0
1756899358.0905013,-0.99072265625,109.0
1756899358.0926716,-0.99072265625,134.0
1756899358.103444,-0.99072265625,150.0
1756899358.103734,-0.99072265625,137.0
1756899358.103929,-0.99072265625,104.0
1756899358.104459,-0.99072265625,73.0
1756899358.1046588,-0.99072265625,62.0
1756899358.1048617,-0.99072265625,66.0
1756899358.1064482,-0.99072265625,70.0
1756899358.1084683,-0.99072265625,64.0
1756899358.1103761,-0.99072265625,48.0
1756899358.1139073,-0.99072265625,28.0
1756899358.1148233,-0.99072265625,15.0
1756899358.118838,-0.99072265625,10.0
1756899358.1191483,-0.99072265625,6.0
1756899358.1201024,-0.99072265625,-3.0
1756899358.1283548,-0.99072265625,-10.0
1756899358.1285987,-0.99072265625,-8.0
1756899358.1298792,-0.99072265625,0.0
1756899358.1317399,-0.99072265625,-4.0
1756899358.1322846,-0.99072265625,-31.0
1756899358.1324947,-0.99072265625,-72.0
1756899358.134365,-0.99072265625,-108.0
1756899358.1359057,-0.99072265625,-129.0
1756899358.137814,-0.99072265625,-141.0
1756899358.1396518,-0.99072265625,-158.0
1756899358.1416688,-0.99072265625,-181.0
1756899358.144692,-0.99072265625,-200.0
1756899358.1461244,-0.99072265625,-211.0
1756899358.1519642,-0.99072265625,-211.0
1756899358.1523716,-0.99072265625,-203.0
1756899358.1528358,-0.99072265625,-185.0
1756899358.1534262,-0.99072265625,-163.0
1756899358.1571436,-0.99072265625,-151.0
1756899358.157362,-0.99072265625,-160.0
1756899358.159528,-0.99072265625,-189.0
1756899358.1612818,-0.99072265625,-221.0
1756899358.1632597,-0.99072265625,-242.0
1756899358.1652486,-0.99072265625,-251.0
1756899358.1673322,-0.99072265625,-264.0
1756899358.1695151,-0.99072265625,-292.0
1756899358.169533,-0.99169921875,-292.0
1756899358.1710703,-0.99169921875,-328.0
1756899358.1732767,-0.99169921875,-352.0
1756899358.1750348,-0.99169921875,-350.0
1756899358.179933,-0.99169921875,-328.0
1756899358.1801596,-0.99169921875,-306.0
1756899358.1815877,-0.99169921875,-293.0
1756899358.1830952,-0.99169921875,-285.0
1756899358.187875,-0.99169921875,-270.0
1756899358.188106,-0.99169921875,-251.0
1756899358.1888528,-0.99169921875,-242.0
1756899358.1909163,-0.99169921875,-246.0
1756899358.1912863,-1.0146484375,-246.0
1756899358.1938832,-1.0146484375,-251.0
1756899358.1947389,-1.0146484375,-246.0
1756899358.1966515,-1.0146484375,-233.0
1756899358.1986527,-1.0146484375,-230.0
1756899358.2007012,-1.0146484375,-239.0
1756899358.2040515,-1.0146484375,-244.0
1756899358.204544,-1.0146484375,-226.0
1756899358.206474,-1.0146484375,-188.0
1756899358.208552,-1.0146484375,-153.0
1756899358.2104573,-1.0146484375,-133.0
1756899358.2124197,-1.0146484375,-122.0
1756899358.2143276,-1.0146484375,-104.0
1756899358.221033,-1.0146484375,-77.0
1756899358.221251,-1.0146484375,-49.0
1756899358.2214482,-1.0146484375,-32.0
1756899358.2232363,-1.0146484375,-26.0
1756899358.2241795,-1.0146484375,-26.0
1756899358.2263055,-1.0146484375,-21.0
1756899358.2364664,-1.0146484375,-7.0
1756899358.2368355,-1.0146484375,13.0
1756899358.237291,-1.0146484375,35.0
1756899358.2376895,-1.0146484375,55.0
1756899358.2380757,0.242431640625,55.0
1756899358.2389455,0.242431640625,74.0
1756899358.2391505,0.242431640625,97.0
1756899358.2398765,0.242431640625,122.0
1756899358.242027,0.242431640625,143.0
1756899358.2439475,0.242431640625,155.0
1756899358.245967,0.242431640625,158.0
1756899358.2478163,0.242431640625,157.0
1756899358.2497795,0.242431640625,161.0
1756899358.2564914,0.242431640625,170.0
1756899358.2567499,0.242431640625,187.0
1756899358.2616897,0.242431640625,207.0
1756899358.2619696,0.242431640625,225.0
1756899358.2621884,0.242431640625,237.0
1756899358.262385,0.242431640625,239.0
1756899358.2635734,0.242431640625,240.0
1756899358.2664218,0.242431640625,243.0
1756899358.2674198,0.242431640625,245.0
1756899358.2694345,0.242431640625,237.0
1756899358.271484,0.242431640625,224.0
1756899358.2733445,0.242431640625,226.0
1756899358.2760913,0.242431640625,255.0
1756899358.277268,0.242431640625,293.0
1756899358.2790904,0.242431640625,311.0
1756899358.2810335,0.242431640625,300.0
1756899358.283062,0.242431640625,291.0
1756899358.2851367,0.242431640625,314.0
1756899358.2860527,0.467041015625,314.0
1756899358.2875707,0.467041015625,360.0
1756899358.289431,0.467041015625,382.0
1756899358.290911,0.467041015625,347.0
1756899358.2928598,0.467041015625,280.0
1756899358.295179,0.467041015625,240.0
1756899358.2967656,0.467041015625,258.0
1756899358.2987866,0.467041015625,305.0
1756899358.300747,0.467041015625,334.0
1756899358.3026662,0.467041015625,326.0
1756899358.305628,0.467041015625,312.0
1756899358.3069224,0.467041015625,322.0
1756899358.3135502,0.467041015625,352.0
1756899358.3136835,0.467041015625,377.0
1756899358.3137465,0.467041015625,384.0
1756899358.3145292,0.467041015625,386.0
1756899358.3164845,0.467041015625,387.0
1756899358.3186328,0.467041015625,381.0
1756899358.320366,0.467041015625,360.0
1756899358.3244271,0.467041015625,341.0
1756899358.3246515,0.467041015625,348.0
1756899358.3270264,0.467041015625,378.0
1756899358.3283267,0.467041015625,400.0
1756899358.3307083,0.467041015625,393.0
1756899358.3345408,0.467041015625,373.0
1756899358.3347554,0.467041015625,374.0
1756899358.3361835,0.467041015625,403.0
1756899358.3384185,0.642578125,403.0
1756899358.3384855,0.642578125,430.0
1756899358.340079,0.642578125,426.0
1756899358.3420863,0.642578125,393.0
1756899358.3440518,0.642578125,362.0
1756899358.34607,0.642578125,356.0
1756899358.3479838,0.642578125,370.0
1756899358.351725,0.642578125,378.0
1756899358.352992,0.642578125,368.0
1756899358.3538768,0.642578125,345.0
1756899358.3559148,0.642578125,326.0
1756899358.3738933,0.642578125,324.0
1756899358.374486,0.642578125,340.0
1756899358.3750823,0.642578125,361.0
1756899358.3754902,0.642578125,374.0
1756899358.375691,0.642578125,375.0
1756899358.3770921,0.642578125,373.0
1756899358.3774803,0.642578125,381.0
1756899358.3776793,0.642578125,397.0
1756899358.3779323,0.642578125,407.0
1756899358.378538,0.642578125,404.0
1756899358.3787389,0.642578125,392.0
1756899358.3795772,0.642578125,383.0
1756899358.3815286,0.642578125,384.0
1756899358.383524,0.642578125,389.0
1756899358.3855436,0.642578125,390.0
1756899358.3860338,1.0703125,390.0
1756899358.3876212,1.0703125,388.0
1756899358.3894885,1.0703125,386.0
1756899358.3912175,1.0703125,383.0
1756899358.393352,1.0703125,379.0
1756899358.4000516,1.0703125,379.0
1756899358.400352,1.0703125,386.0
1756899358.40055,1.0703125,394.0
1756899358.401225,1.0703125,392.0
1756899358.4036412,1.0703125,380.0
1756899358.404984,1.0703125,373.0
1756899358.4070127,1.0703125,381.0
1756899358.4090235,1.0703125,399.0
1756899358.4108908,1.0703125,411.0
1756899358.4131036,1.0703125,407.0
1756899358.4149349,1.0703125,396.0
1756899358.416856,1.0703125,387.0
1756899358.4187875,1.0703125,383.0
1756899358.4209306,1.0703125,377.0
1756899358.4226878,1.0703125,370.0
1756899358.4381216,0.955078125,370.0
1756899358.4817967,0.955078125,366.0
1756899358.4866455,0.76171875,366.0
1756899358.5061982,0.76171875,370.0
1756899358.5142925,0.76171875,377.0
1756899358.5155356,0.76171875,380.0
1756899358.516079,0.76171875,377.0
1756899358.5162885,0.76171875,370.0
1756899358.5164862,0.76171875,358.0
1756899358.5166824,0.76171875,346.0
1756899358.5168917,0.76171875,342.0
1756899358.5172122,0.76171875,350.0
1756899358.5174127,0.76171875,360.0
1756899358.51761,0.76171875,357.0
1756899358.5191565,0.76171875,339.0
1756899358.5194292,0.76171875,324.0
1756899358.5225065,0.76171875,327.0
1756899358.5232942,0.76171875,338.0
1756899358.5235586,0.76171875,334.0
1756899358.5253856,0.76171875,312.0
1756899358.526935,0.76171875,293.0
1756899358.5272276,0.76171875,296.0
1756899358.5273874,0.76171875,311.0
1756899358.527582,0.76171875,311.0
1756899358.527945,0.76171875,288.0
1756899358.5283062,0.76171875,265.0
1756899358.5283937,0.76171875,267.0
1756899358.528497,0.76171875,292.0
1756899358.5285475,0.76171875,313.0
1756899358.5285947,0.76171875,318.0
1756899358.5286534,0.76171875,316.0
1756899358.5286996,0.76171875,321.0
1756899358.528788,0.76171875,329.0
1756899358.5288367,0.76171875,327.0
1756899358.528883,0.76171875,316.0
1756899358.5289292,0.76171875,316.0
1756899358.5289774,0.76171875,336.0
1756899358.5295258,0.76171875,364.0
1756899358.5295746,0.76171875,378.0
1756899358.529622,0.76171875,371.0
1756899358.5296702,0.76171875,360.0
1756899358.5298667,0.76171875,364.0
1756899358.5299175,0.76171875,378.0
1756899358.5299647,0.76171875,382.0
1756899358.530011,0.76171875,364.0
1756899358.5300577,0.76171875,333.0
1756899358.5301046,0.76171875,303.0
1756899358.5301514,0.76171875,284.0
1756899358.530214,0.76171875,276.0
1756899358.530261,0.76171875,278.0
1756899358.5303078,0.76171875,291.0
1756899358.5306864,0.76171875,307.0
1756899358.5307367,0.76171875,319.0
1756899358.5322683,0.76171875,318.0
1756899358.5342171,0.76171875,309.0
1756899358.53464,0.76171875,305.0
1756899358.5346878,0.76171875,307.0
1756899358.5347307,0.76171875,306.0
1756899358.5347748,0.76171875,290.0
1756899358.5366242,0.76171875,264.0
1756899358.5391483,0.267822265625,264.0
1756899358.5391715,0.267822265625,242.0
1756899358.540561,0.267822265625,235.0
1756899358.5425265,0.267822265625,242.0
1756899358.5444467,0.267822265625,247.0
1756899358.5464494,0.267822265625,246.0
1756899358.5484185,0.267822265625,244.0
1756899358.550427,0.267822265625,246.0
1756899358.5536675,0.267822265625,254.0
1756899358.554382,0.267822265625,260.0
1756899358.5563128,0.267822265625,257.0
1756899358.5582502,0.267822265625,243.0
1756899358.5608008,0.267822265625,222.0
1756899358.5622327,0.267822265625,204.0
1756899358.564121,0.267822265625,200.0
1756899358.5708528,0.267822265625,214.0
1756899358.57113,0.267822265625,237.0
1756899358.5712209,0.267822265625,256.0
1756899358.5719616,0.267822265625,265.0
1756899358.5739386,0.267822265625,269.0
1756899358.5758812,0.267822265625,270.0
1756899358.577842,0.267822265625,268.0
1756899358.579929,0.267822265625,263.0
1756899358.5840838,0.267822265625,261.0
1756899358.584139,-0.111328125,261.0
1756899358.584175,-0.111328125,268.0
1756899358.5858028,-0.111328125,281.0
1756899358.5876787,-0.111328125,281.0
1756899358.5896864,-0.111328125,262.0
1756899358.592053,-0.111328125,243.0
1756899358.5935795,-0.111328125,254.0
1756899358.59556,-0.111328125,294.0
1756899358.5975008,-0.111328125,329.0
1756899358.5996404,-0.111328125,319.0
1756899358.6084697,-0.111328125,269.0
1756899358.6088965,-0.111328125,225.0
1756899358.6093943,-0.111328125,228.0
1756899358.609446,-0.111328125,265.0
1756899358.612046,-0.111328125,287.0
1756899358.6131516,-0.111328125,263.0
1756899358.6136818,-0.111328125,215.0
1756899358.6152887,-0.111328125,192.0
1756899358.6171932,-0.111328125,215.0
1756899358.6192281,-0.111328125,255.0
1756899358.6212583,-0.111328125,271.0
1756899358.6231613,-0.111328125,252.0
1756899358.6251402,-0.111328125,226.0
1756899358.6270757,-0.111328125,220.0
1756899358.6290212,-0.111328125,231.0
1756899358.631036,-0.111328125,233.0
1756899358.6329205,-0.111328125,210.0
1756899358.6348565,-0.111328125,181.0
1756899358.6368084,-0.111328125,172.0
1756899358.6383424,-0.468505859375,172.0
1756899358.6387706,-0.468505859375,185.0
1756899358.6408064,-0.468505859375,192.0
1756899358.6433053,-0.468505859375,174.0
1756899358.644766,-0.468505859375,141.0
1756899358.6467578,-0.468505859375,122.0
1756899358.648682,-0.468505859375,131.0
1756899358.6507456,-0.468505859375,151.0
1756899358.6667125,-0.468505859375,153.0
1756899358.6669414,-0.468505859375,135.0
1756899358.6671019,-0.468505859375,123.0
1756899358.6672578,-0.468505859375,138.0
1756899358.6674135,-0.468505859375,172.0
1756899358.667569,-0.468505859375,195.0
1756899358.6677234,-0.468505859375,189.0
1756899358.6678755,-0.468505859375,172.0
1756899358.6683924,-0.468505859375,165.0
1756899358.671864,-0.468505859375,171.0
1756899358.6724806,-0.468505859375,167.0
1756899358.6744025,-0.468505859375,137.0
1756899358.6762605,-0.468505859375,92.0
1756899358.6781979,-0.468505859375,60.0
1756899358.6800992,-0.468505859375,58.0
1756899358.6828623,-0.468505859375,75.0
1756899358.6843295,-0.8330078125,75.0
1756899358.6848025,-0.8330078125,86.0
1756899358.6867347,-0.8330078125,83.0
1756899358.6879609,-0.8330078125,76.0
1756899358.68993,-0.8330078125,84.0
1756899358.6918716,-0.8330078125,108.0
1756899358.6938257,-0.8330078125,134.0
1756899358.6958432,-0.8330078125,147.0
1756899358.6977615,-0.8330078125,144.0
1756899358.7036798,-0.8330078125,139.0
1756899358.7124312,-0.8330078125,147.0
1756899358.7208524,-0.8330078125,161.0
1756899358.721188,-0.8330078125,163.0
1756899358.721354,-0.8330078125,146.0
1756899358.721545,-0.8330078125,127.0
1756899358.721701,-0.8330078125,131.0
1756899358.7220929,-0.8330078125,155.0
1756899358.722256,-0.8330078125,173.0
1756899358.722435,-0.8330078125,161.0
1756899358.7224884,-0.8330078125,136.0
1756899358.7225397,-0.8330078125,131.0
1756899358.723457,-0.8330078125,159.0
1756899358.7253013,-0.8330078125,194.0
1756899358.7273197,-0.8330078125,206.0
1756899358.7292414,-0.8330078125,196.0
1756899358.7312267,-0.8330078125,191.0
1756899358.7334328,-0.8330078125,211.0
1756899358.7350543,-0.8330078125,246.0
1756899358.7370298,-0.8330078125,273.0
1756899358.7388048,-0.96533203125,273.0
1756899358.7393937,-0.96533203125,283.0
1756899358.7469113,-0.96533203125,281.0
1756899358.7470925,-0.96533203125,274.0
1756899358.7471478,-0.96533203125,262.0
1756899358.7472,-0.96533203125,247.0
1756899358.7488792,-0.96533203125,236.0
1756899358.7512884,-0.96533203125,236.0
1756899358.7541754,-0.96533203125,240.0
1756899358.7549076,-0.96533203125,234.0
1756899358.7568612,-0.96533203125,217.0
1756899358.7588243,-0.96533203125,201.0
1756899358.761995,-0.96533203125,202.0
1756899358.7628357,-0.96533203125,222.0
1756899358.7648232,-0.96533203125,244.0
1756899358.7667706,-0.96533203125,248.0
1756899358.7686768,-0.96533203125,230.0
1756899358.7795482,-0.96533203125,203.0
1756899358.7796712,-0.96533203125,192.0
1756899358.7797503,-0.96533203125,206.0
1756899358.7798293,-0.96533203125,231.0
1756899358.7799056,-0.96533203125,243.0
1756899358.780677,-0.96533203125,230.0
1756899358.7824044,-0.96533203125,210.0
1756899358.7837703,-1.06640625,210.0
1756899358.784418,-1.06640625,205.0
1756899358.7863488,-1.06640625,219.0
1756899358.789246,-1.06640625,235.0
1756899358.7922494,-1.06640625,236.0
1756899358.7923212,-1.06640625,223.0
1756899358.7980683,-1.06640625,203.0
1756899358.8036218,-1.06640625,181.0
1756899358.803845,-1.06640625,158.0
1756899358.8040063,-1.06640625,137.0
1756899358.8041613,-1.06640625,127.0
1756899358.8201094,-1.06640625,133.0
1756899358.8212848,-1.06640625,143.0
1756899358.8217037,-1.06640625,145.0
1756899358.8218691,-1.06640625,139.0
1756899358.822025,-1.06640625,136.0
1756899358.8222053,-1.06640625,145.0
1756899358.8223622,-1.06640625,159.0
1756899358.8225172,-1.06640625,163.0
1756899358.822671,-1.06640625,142.0
1756899358.8227837,-1.06640625,98.0
1756899358.8241742,-1.06640625,44.0
1756899358.8256533,-1.06640625,-11.0
1756899358.8282392,-1.06640625,-79.0
1756899358.82963,-1.06640625,-176.0
1756899358.831672,-1.06640625,-298.0
1756899358.8335257,-1.06640625,-416.0
1756899358.8353646,-1.06640625,-492.0
1756899358.8373404,-1.06640625,-518.0
1756899358.8393106,-1.06640625,-515.0
1756899358.8405638,-0.775390625,-515.0
1756899358.8413658,-0.775390625,-505.0
1756899358.8432894,-0.775390625,-471.0
1756899358.8452137,-0.775390625,-381.0
1756899358.847277,-0.775390625,-229.0
1756899358.849282,-0.775390625,-56.0
1756899358.8514583,-0.775390625,82.0
1756899358.8544734,-0.775390625,172.0
1756899358.861055,-0.775390625,240.0
1756899358.8682117,-0.775390625,312.0
1756899358.869374,-0.775390625,378.0
1756899358.869542,-0.775390625,411.0
1756899358.869736,-0.775390625,400.0
1756899358.871466,-0.775390625,367.0
1756899358.8716388,-0.775390625,337.0
1756899358.872688,-0.775390625,318.0
1756899358.872849,-0.775390625,300.0
1756899358.873003,-0.775390625,278.0
1756899358.8749492,-0.775390625,257.0
1756899358.8765898,-0.775390625,242.0
1756899358.878659,-0.775390625,231.0
1756899358.8805816,-0.775390625,220.0
1756899358.882603,-0.775390625,207.0
1756899358.883872,0.60888671875,207.0
1756899358.884574,0.60888671875,192.0
1756899358.8865209,0.60888671875,170.0
1756899358.8885636,0.60888671875,136.0
1756899358.8904543,0.60888671875,97.0
1756899358.892421,0.60888671875,70.0
1756899358.8943698,0.60888671875,68.0
1756899358.896591,0.60888671875,82.0
1756899358.8996532,0.60888671875,90.0
1756899358.9001637,0.60888671875,81.0
1756899358.9021459,0.60888671875,70.0
1756899358.904651,0.60888671875,81.0
1756899358.9061172,0.60888671875,114.0
1756899358.9080167,0.60888671875,143.0
1756899358.9102674,0.60888671875,144.0
1756899358.912113,0.60888671875,127.0
1756899358.914035,0.60888671875,123.0
1756899358.9161344,0.60888671875,141.0
1756899358.9180949,0.60888671875,157.0
1756899358.9202504,0.60888671875,143.0
1756899358.9220464,0.60888671875,101.0
1756899358.923921,0.60888671875,67.0
1756899358.9260929,0.60888671875,65.0
1756899358.928047,0.60888671875,84.0
1756899358.9300423,0.60888671875,93.0
1756899358.9320168,0.60888671875,80.0
1756899358.934027,0.60888671875,66.0
1756899358.9358869,0.60888671875,77.0
1756899358.93797,0.60888671875,111.0
1756899358.9396963,0.60888671875,142.0
1756899358.9415965,0.60888671875,145.0
1756899358.943558,0.60888671875,121.0
1756899358.944175,1.267578125,121.0
1756899358.9455655,1.267578125,94.0
1756899358.9473898,1.267578125,88.0
1756899358.9493532,1.267578125,104.0
1756899358.9515066,1.267578125,123.0
1756899358.9559367,1.267578125,120.0
1756899358.9561708,1.267578125,88.0
1756899358.9572492,1.267578125,48.0
1756899358.9592094,1.267578125,31.0
1756899358.9612753,1.267578125,46.0
1756899358.9631977,1.267578125,70.0
1756899358.965118,1.267578125,75.0
1756899358.967142,1.267578125,55.0
1756899358.969064,1.267578125,30.0
1756899358.9709287,1.267578125,22.0
1756899358.972901,1.267578125,37.0
1756899358.974857,1.267578125,61.0
1756899358.9778368,1.267578125,75.0
1756899358.9791107,1.267578125,73.0
1756899358.9808578,1.267578125,64.0
1756899358.9828043,1.267578125,56.0
1756899358.983735,1.146484375,56.0
1756899358.9847634,1.146484375,52.0
1756899358.9867394,1.146484375,48.0
1756899358.9886942,1.146484375,42.0
1756899358.9906628,1.146484375,39.0
1756899358.9926405,1.146484375,40.0
1756899358.9946444,1.146484375,41.0
1756899358.9965818,1.146484375,37.0
1756899358.9992788,1.146484375,29.0
1756899359.0013788,1.146484375,26.0
1756899359.0023837,1.146484375,36.0
1756899359.0044267,1.146484375,56.0
1756899359.0063493,1.146484375,70.0
1756899359.0082972,1.146484375,73.0
1756899359.010519,1.146484375,64.0
1756899359.0124707,1.146484375,51.0
1756899359.014781,1.146484375,34.0
1756899359.01633,1.146484375,16.0
1756899359.018404,1.146484375,4.0
1756899359.0202663,1.146484375,5.0
1756899359.022278,1.146484375,14.0
1756899359.0242143,1.146484375,15.0
1756899359.0265203,1.146484375,6.0
1756899359.0282776,1.146484375,-1.0
1756899359.0305862,1.146484375,10.0
1756899359.0322232,1.146484375,31.0
1756899359.0341895,1.146484375,45.0
1756899359.036234,1.146484375,42.0
1756899359.0369318,0.73583984375,42.0
1756899359.0379004,0.73583984375,34.0
1756899359.0398247,0.73583984375,35.0
1756899359.0419297,0.73583984375,41.0
1756899359.0438042,0.73583984375,37.0
1756899359.0458612,0.73583984375,15.0
1756899359.04778,0.73583984375,-15.0
1756899359.0496967,0.73583984375,-37.0
1756899359.0515726,0.73583984375,-47.0
1756899359.0554879,0.73583984375,-55.0
1756899359.05555,0.73583984375,-70.0
1756899359.0574164,0.73583984375,-92.0
1756899359.0602908,0.73583984375,-110.0
1756899359.0613906,0.73583984375,-112.0
1756899359.064443,0.73583984375,-98.0
1756899359.06785,0.73583984375,-83.0
1756899359.0680575,0.73583984375,-83.0
1756899359.0692508,0.73583984375,-102.0
1756899359.0713658,0.73583984375,-123.0
1756899359.0734198,0.73583984375,-129.0
1756899359.0755897,0.73583984375,-124.0
1756899359.077073,0.73583984375,-125.0
1756899359.0791793,0.73583984375,-139.0
1756899359.08112,0.73583984375,-155.0
1756899359.0831316,0.73583984375,-161.0
1756899359.0852528,0.73583984375,-157.0
1756899359.0866818,0.57958984375,-157.0
1756899359.0871239,0.57958984375,-156.0
1756899359.089083,0.57958984375,-159.0
1756899359.0910466,0.57958984375,-152.0
1756899359.0930028,0.57958984375,-133.0
1756899359.0948963,0.57958984375,-121.0
1756899359.0969627,0.57958984375,-133.0
1756899359.0994895,0.57958984375,-163.0
1756899359.1015093,0.57958984375,-182.0
1756899359.1028655,0.57958984375,-182.0
1756899359.1054423,0.57958984375,-180.0
1756899359.1069293,0.57958984375,-201.0
1756899359.1091366,0.57958984375,-241.0
1756899359.1106265,0.57958984375,-272.0
1756899359.1126523,0.57958984375,-274.0
1756899359.1149428,0.57958984375,-257.0
1756899359.1165507,0.57958984375,-240.0
1756899359.1184807,0.57958984375,-232.0
1756899359.1205022,0.57958984375,-224.0
1756899359.1224134,0.57958984375,-209.0
1756899359.1243603,0.57958984375,-193.0
1756899359.1263747,0.57958984375,-184.0
1756899359.128356,0.57958984375,-174.0
1756899359.1302674,0.57958984375,-157.0
1756899359.1322906,0.57958984375,-136.0
1756899359.1342764,0.57958984375,-124.0
1756899359.13619,0.57958984375,-129.0
1756899359.1381652,0.57958984375,-134.0
1756899359.1389463,0.3603515625,-134.0
1756899359.1401172,0.3603515625,-122.0
1756899359.1422105,0.3603515625,-92.0
1756899359.1445773,0.3603515625,-63.0
1756899359.1468751,0.3603515625,-55.0
1756899359.148138,0.3603515625,-59.0
1756899359.1501455,0.3603515625,-54.0
1756899359.1520123,0.3603515625,-29.0
1756899359.1543102,0.3603515625,4.0
1756899359.1574817,0.3603515625,29.0
1756899359.157746,0.3603515625,40.0
1756899359.1597857,0.3603515625,45.0
1756899359.1618702,0.3603515625,54.0
1756899359.16383,0.3603515625,75.0
1756899359.1657426,0.3603515625,109.0
1756899359.167707,0.3603515625,152.0
1756899359.1705594,0.3603515625,198.0
1756899359.1716082,0.3603515625,229.0
1756899359.1736562,0.3603515625,234.0
1756899359.1754858,0.3603515625,221.0
1756899359.1774049,0.3603515625,214.0
1756899359.1793764,0.3603515625,231.0
1756899359.181603,0.3603515625,266.0
1756899359.1837747,0.0318603515625,266.0
1756899359.1846123,0.0318603515625,292.0
1756899359.1855173,0.0318603515625,290.0
1756899359.1878414,0.0318603515625,267.0
1756899359.1895704,0.0318603515625,251.0
1756899359.1913426,0.0318603515625,268.0
1756899359.1935449,0.0318603515625,315.0
1756899359.1951745,0.0318603515625,367.0
1756899359.1973002,0.0318603515625,397.0
1756899359.1996944,0.0318603515625,398.0
1756899359.2010736,0.0318603515625,392.0
1756899359.203948,0.0318603515625,406.0
1756899359.2059755,0.0318603515625,441.0
1756899359.2071683,0.0318603515625,469.0
1756899359.2092397,0.0318603515625,460.0
1756899359.2115738,0.0318603515625,422.0
1756899359.2129452,0.0318603515625,393.0
1756899359.2149274,0.0318603515625,399.0
1756899359.21695,0.0318603515625,428.0
1756899359.2191834,0.0318603515625,446.0
1756899359.220878,0.0318603515625,443.0
1756899359.2228298,0.0318603515625,443.0
1756899359.2247562,0.0318603515625,467.0
1756899359.2271338,0.0318603515625,503.0
1756899359.228794,0.0318603515625,514.0
1756899359.2306225,0.0318603515625,488.0
1756899359.2327144,0.0318603515625,452.0
1756899359.234636,0.0318603515625,443.0
1756899359.2368753,0.0318603515625,459.0
1756899359.2384748,0.0318603515625,470.0
1756899359.2404964,0.0318603515625,455.0
1756899359.242385,0.0318603515625,430.0
1756899359.247203,-0.3349609375,430.0
1756899359.258565,-0.3349609375,426.0
1756899359.2600336,-0.3349609375,450.0
1756899359.2610776,-0.3349609375,479.0
1756899359.2612836,-0.3349609375,486.0
1756899359.2631695,-0.3349609375,469.0
1756899359.263353,-0.3349609375,452.0
1756899359.2634313,-0.3349609375,454.0
1756899359.2635,-0.3349609375,475.0
1756899359.2635677,-0.3349609375,496.0
1756899359.2636342,-0.3349609375,504.0
1756899359.2639658,-0.3349609375,500.0
1756899359.2657776,-0.3349609375,495.0
1756899359.2677753,-0.3349609375,497.0
1756899359.2699468,-0.3349609375,506.0
1756899359.2718832,-0.3349609375,519.0
1756899359.2739007,-0.3349609375,532.0
1756899359.2756798,-0.3349609375,545.0
1756899359.2844455,-0.3349609375,553.0
1756899359.2848125,-0.3349609375,551.0
1756899359.2850091,-0.3349609375,546.0
1756899359.2850523,-0.3349609375,544.0
1756899359.2854972,-0.3349609375,546.0
1756899359.2874281,-0.3349609375,540.0
1756899359.2893677,-0.3349609375,522.0
1756899359.291331,-0.3349609375,503.0
1756899359.2933114,-0.3349609375,502.0
1756899359.2953103,-0.3349609375,521.0
1756899359.297297,-0.55419921875,521.0
1756899359.2979264,-0.55419921875,535.0
1756899359.3004117,-0.55419921875,518.0
1756899359.3011267,-0.55419921875,474.0
1756899359.3032877,-0.55419921875,436.0
1756899359.3055527,-0.55419921875,430.0
1756899359.3071086,-0.55419921875,448.0
1756899359.3093264,-0.55419921875,464.0
1756899359.3111124,-0.55419921875,463.0
1756899359.3133745,-0.55419921875,452.0
1756899359.3149798,-0.55419921875,451.0
1756899359.3169472,-0.55419921875,464.0
1756899359.3189168,-0.55419921875,478.0
1756899359.320941,-0.55419921875,479.0
1756899359.3232787,-0.55419921875,469.0
1756899359.3256066,-0.55419921875,457.0
1756899359.3270578,-0.55419921875,445.0
1756899359.3289459,-0.55419921875,433.0
1756899359.3310046,-0.55419921875,417.0
1756899359.3329089,-0.55419921875,401.0
1756899359.334954,-0.55419921875,392.0
1756899359.335642,-0.92578125,392.0
1756899359.3366704,-0.92578125,397.0
1756899359.3385806,-0.92578125,412.0
1756899359.340635,-0.92578125,424.0
1756899359.3425221,-0.92578125,421.0
1756899359.3445377,-0.92578125,401.0
1756899359.346433,-0.92578125,377.0
1756899359.3484373,-0.92578125,367.0
1756899359.3505096,-0.92578125,376.0
1756899359.3533542,-0.92578125,389.0
1756899359.354295,-0.92578125,389.0
1756899359.3562915,-0.92578125,372.0
1756899359.362547,-0.92578125,353.0
1756899359.362776,-0.92578125,346.0
1756899359.362937,-0.92578125,350.0
1756899359.3643901,-0.92578125,353.0
1756899359.3664613,-0.92578125,353.0
1756899359.3683014,-0.92578125,355.0
1756899359.370258,-0.92578125,363.0
1756899359.373058,-0.92578125,367.0
1756899359.3741848,-0.92578125,353.0
1756899359.3761687,-0.92578125,325.0
1756899359.3779964,-0.92578125,300.0
1756899359.3798597,-0.92578125,294.0
1756899359.3819218,-0.92578125,306.0
1756899359.3840191,-1.0732421875,306.0
1756899359.3908992,-1.0732421875,319.0
1756899359.391014,-1.0732421875,322.0
1756899359.3917348,-1.0732421875,311.0
1756899359.391881,-1.0732421875,288.0
1756899359.3919942,-1.0732421875,263.0
1756899359.393864,-1.0732421875,248.0
1756899359.3955023,-1.0732421875,255.0
1756899359.3974698,-1.0732421875,278.0
1756899359.399435,-1.0732421875,288.0
1756899359.4027267,-1.0732421875,265.0
1756899359.4033208,-1.0732421875,227.0
1756899359.4158359,-1.0732421875,212.0
1756899359.4159608,-1.0732421875,237.0
1756899359.416239,-1.0732421875,274.0
1756899359.4165123,-1.0732421875,282.0
1756899359.4168007,-1.0732421875,256.0
1756899359.41692,-1.0732421875,232.0
1756899359.4171696,-1.0732421875,238.0
1756899359.419439,-1.0732421875,262.0
1756899359.421019,-1.0732421875,269.0
1756899359.4229884,-1.0732421875,254.0
1756899359.425138,-1.0732421875,242.0
1756899359.4272735,-1.0732421875,249.0
1756899359.4292781,-1.0732421875,260.0
1756899359.4311283,-1.0732421875,249.0
1756899359.4331093,-1.0732421875,226.0
1756899359.434971,-1.0732421875,219.0
1756899359.4370272,-1.0732421875,236.0
1756899359.438952,-1.0732421875,247.0
1756899359.439722,-0.81982421875,247.0
1756899359.4409204,-0.81982421875,230.0
1756899359.4489715,-0.81982421875,199.0
1756899359.4510074,-0.81982421875,192.0
1756899359.451364,-0.81982421875,220.0
1756899359.451493,-0.81982421875,250.0
1756899359.4515908,-0.81982421875,251.0
1756899359.4525137,-0.81982421875,233.0
1756899359.4570847,-0.81982421875,226.0
1756899359.4572845,-0.81982421875,234.0
1756899359.4585764,-0.81982421875,234.0
1756899359.4605825,-0.81982421875,209.0
1756899359.4624352,-0.81982421875,178.0
1756899359.4643812,-0.81982421875,164.0
1756899359.4663458,-0.81982421875,166.0
1756899359.4683437,-0.81982421875,155.0
1756899359.4701378,-0.81982421875,124.0
1756899359.4722743,-0.81982421875,103.0
1756899359.4741545,-0.81982421875,120.0
1756899359.476083,-0.81982421875,162.0
1756899359.4782455,-0.81982421875,192.0
1756899359.4800236,-0.81982421875,191.0
1756899359.4820557,-0.81982421875,174.0
1756899359.4839108,-0.81982421875,172.0
1756899359.4858823,-0.81982421875,192.0
1756899359.4868526,-0.1527099609375,192.0
1756899359.487832,-0.1527099609375,217.0
1756899359.4898288,-0.1527099609375,228.0
1756899359.4918048,-0.1527099609375,218.0
1756899359.493793,-0.1527099609375,192.0
1756899359.4957376,-0.1527099609375,164.0
1756899359.4976816,-0.1527099609375,146.0
1756899359.499939,-0.1527099609375,144.0
1756899359.501582,-0.1527099609375,146.0
1756899359.5036483,-0.1527099609375,131.0
1756899359.5068743,-0.1527099609375,97.0
1756899359.5075703,-0.1527099609375,66.0
1756899359.5098708,-0.1527099609375,66.0
1756899359.5116253,-0.1527099609375,93.0
1756899359.513696,-0.1527099609375,111.0
1756899359.5169575,-0.1527099609375,98.0
1756899359.518303,-0.1527099609375,68.0
1756899359.5195515,-0.1527099609375,58.0
1756899359.521469,-0.1527099609375,82.0
1756899359.524927,-0.1527099609375,105.0
1756899359.5254943,-0.1527099609375,94.0
1756899359.527339,-0.1527099609375,57.0
1756899359.529311,-0.1527099609375,38.0
1756899359.531256,-0.1527099609375,55.0
1756899359.5334353,-0.1527099609375,82.0
1756899359.5352337,-0.1527099609375,80.0
1756899359.537308,-0.1527099609375,49.0
1756899359.5388613,-0.314697265625,49.0
1756899359.539154,-0.314697265625,31.0
1756899359.5411747,-0.314697265625,58.0
1756899359.5432074,-0.314697265625,109.0
1756899359.5451055,-0.314697265625,132.0
1756899359.5473175,-0.314697265625,106.0
1756899359.5507786,-0.314697265625,61.0
1756899359.5607524,-0.314697265625,44.0
1756899359.561984,-0.314697265625,66.0
1756899359.562292,-0.314697265625,96.0
1756899359.5626,-0.314697265625,96.0
1756899359.5627599,-0.314697265625,67.0
1756899359.5630727,-0.314697265625,38.0
1756899359.5632303,-0.314697265625,37.0
1756899359.56593,-0.314697265625,59.0
1756899359.5667036,-0.314697265625,78.0
1756899359.5691173,-0.314697265625,78.0
1756899359.5707772,-0.314697265625,71.0
1756899359.5725968,-0.314697265625,72.0
1756899359.574562,-0.314697265625,80.0
1756899359.5764654,-0.314697265625,74.0
1756899359.578432,-0.314697265625,48.0
1756899359.5805712,-0.314697265625,23.0
1756899359.582368,-0.314697265625,19.0
1756899359.5842855,-0.314697265625,32.0
1756899359.5862503,-0.314697265625,30.0
1756899359.5868533,0.8681640625,30.0
1756899359.5882213,0.8681640625,-6.0
1756899359.5903006,0.8681640625,-55.0
1756899359.5923219,0.8681640625,-79.0
1756899359.6117034,0.8681640625,-69.0
1756899359.6121283,0.8681640625,-48.0
1756899359.6125278,0.8681640625,-47.0
1756899359.6125958,0.8681640625,-66.0
1756899359.613037,0.8681640625,-83.0
1756899359.613124,0.8681640625,-83.0
1756899359.613497,0.8681640625,-69.0
1756899359.615855,0.8681640625,-55.0
1756899359.6165736,0.8681640625,-49.0
1756899359.617257,0.8681640625,-49.0
1756899359.619402,0.8681640625,-56.0
1756899359.6200006,0.8681640625,-67.0
1756899359.6206088,0.8681640625,-75.0
1756899359.6207187,0.8681640625,-75.0
1756899359.621483,0.8681640625,-74.0
1756899359.6241853,0.8681640625,-85.0
1756899359.6258368,0.8681640625,-113.0
1756899359.6286902,0.8681640625,-141.0
1756899359.6293929,0.8681640625,-154.0
1756899359.631539,0.8681640625,-151.0
1756899359.633717,0.8681640625,-148.0
1756899359.6354706,0.8681640625,-151.0
1756899359.6373749,0.8681640625,-154.0
1756899359.6381323,1.06640625,-154.0
1756899359.639405,1.06640625,-148.0
1756899359.6413429,1.06640625,-133.0
1756899359.6433005,1.06640625,-117.0
1756899359.645379,1.06640625,-95.0
1756899359.6472583,1.06640625,-60.0
1756899359.64936,1.06640625,-18.0
1756899359.663324,1.06640625,6.0
1756899359.6636956,1.06640625,-5.0
1756899359.6645262,1.06640625,-37.0
1756899359.664699,1.06640625,-58.0
1756899359.6647875,1.06640625,-55.0
1756899359.664872,1.06640625,-42.0
1756899359.6657438,1.06640625,-43.0
1756899359.6666517,1.06640625,-63.0
1756899359.6668744,1.06640625,-83.0
1756899359.6686711,1.06640625,-88.0
1756899359.6708515,1.06640625,-80.0
1756899359.6728537,1.06640625,-64.0
1756899359.6748357,1.06640625,-40.0
1756899359.6768558,1.06640625,-3.0
1756899359.6786423,1.06640625,30.0
1756899359.6806905,1.06640625,39.0
1756899359.6831071,1.06640625,21.0
1756899359.684563,1.06640625,4.0
1756899359.6861553,1.2744140625,4.0
1756899359.686527,1.2744140625,17.0
1756899359.6884985,1.2744140625,55.0
1756899359.690438,1.2744140625,81.0
1756899359.6924531,1.2744140625,75.0
1756899359.696123,1.2744140625,54.0
1756899359.6962795,1.2744140625,49.0
1756899359.6982596,1.2744140625,71.0
1756899359.7026975,1.2744140625,101.0
1756899359.7029006,1.2744140625,118.0
1756899359.7043483,1.2744140625,122.0
1756899359.7073903,1.2744140625,126.0
1756899359.7083366,1.2744140625,129.0
1756899359.710378,1.2744140625,128.0
1756899359.7121644,1.2744140625,124.0
1756899359.7140853,1.2744140625,125.0
1756899359.7161372,1.2744140625,134.0
1756899359.7180312,1.2744140625,136.0
1756899359.7212634,1.2744140625,121.0
1756899359.7218502,1.2744140625,103.0
1756899359.724764,1.2744140625,100.0
1756899359.725831,1.2744140625,112.0
1756899359.7279441,1.2744140625,117.0
1756899359.729987,1.2744140625,100.0
1756899359.7317665,1.2744140625,76.0
1756899359.7337596,1.2744140625,64.0
1756899359.7356207,1.2744140625,65.0
1756899359.7376428,1.2744140625,60.0
1756899359.7379725,1.1767578125,60.0
1756899359.7396455,1.1767578125,39.0
1756899359.74162,1.1767578125,17.0
1756899359.7464862,1.1767578125,15.0
1756899359.7466233,1.1767578125,31.0
1756899359.7473345,1.1767578125,45.0
1756899359.7493308,1.1767578125,45.0
1756899359.7514038,1.1767578125,42.0
1756899359.7534065,1.1767578125,50.0
1756899359.7556574,1.1767578125,65.0
1756899359.757165,1.1767578125,69.0
1756899359.7591543,1.1767578125,47.0
1756899359.7611473,1.1767578125,3.0
1756899359.7630963,1.1767578125,-43.0
1756899359.76496,1.1767578125,-80.0
1756899359.7669556,1.1767578125,-117.0
1756899359.7689137,1.1767578125,-175.0
1756899359.7708907,1.1767578125,-265.0
1756899359.7729435,1.1767578125,-374.0
1756899359.7750063,1.1767578125,-471.0
1756899359.7770727,1.1767578125,-538.0
1756899359.7786987,1.1767578125,-590.0
1756899359.7807674,1.1767578125,-648.0
1756899359.7827134,1.1767578125,-712.0
1756899359.784641,1.1767578125,-743.0
1756899359.7865064,0.7666015625,-743.0
1756899359.78663,0.7666015625,-700.0
1756899359.788583,0.7666015625,-590.0
1756899359.790637,0.7666015625,-461.0
1756899359.7926226,0.7666015625,-353.0
1756899359.79454,0.7666015625,-261.0
1756899359.7964199,0.7666015625,-154.0
1756899359.798428,0.7666015625,-27.0
1756899359.80388,0.7666015625,94.0
1756899359.8094835,0.7666015625,177.0
1756899359.8095732,0.7666015625,219.0
1756899359.8096187,0.7666015625,237.0
1756899359.8096611,0.7666015625,235.0
1756899359.8140948,0.7666015625,208.0
1756899359.8141613,0.7666015625,164.0
1756899359.8142052,0.7666015625,131.0
1756899359.8161783,0.7666015625,129.0
1756899359.8182802,0.7666015625,142.0
1756899359.8201656,0.7666015625,130.0
1756899359.821931,0.7666015625,86.0
1756899359.823987,0.7666015625,46.0
1756899359.8330584,0.7666015625,51.0
1756899359.8331091,0.7666015625,94.0
1756899359.8331532,0.7666015625,132.0
1756899359.8333259,0.7666015625,132.0
1756899359.8350034,0.7666015625,105.0
1756899359.8361952,0.7666015625,90.0
1756899359.8376958,0.7666015625,106.0
1756899359.839981,0.7666015625,140.0
1756899359.8417754,0.7666015625,166.0
1756899359.842523,0.3310546875,166.0
1756899359.8438623,0.3310546875,174.0
1756899359.8458319,0.3310546875,168.0
1756899359.84785,0.3310546875,158.0
1756899359.8497229,0.3310546875,146.0
1756899359.8518715,0.3310546875,130.0
1756899359.8550487,0.3310546875,112.0
1756899359.857769,0.3310546875,95.0
1756899359.858144,0.3310546875,83.0
1756899359.8596573,0.3310546875,80.0
1756899359.861489,0.3310546875,88.0
1756899359.8635042,0.3310546875,102.0
1756899359.8660436,0.3310546875,111.0
1756899359.8671966,0.3310546875,112.0
1756899359.8691313,0.3310546875,111.0
1756899359.8710992,0.3310546875,118.0
1756899359.8731618,0.3310546875,131.0
1756899359.875056,0.3310546875,139.0
1756899359.877107,0.3310546875,126.0
1756899359.8790097,0.3310546875,102.0
1756899359.881016,0.3310546875,85.0
1756899359.8829591,0.3310546875,87.0
1756899359.8853886,0.3310546875,97.0
1756899359.8860245,0.09423828125,97.0
1756899359.8872068,0.09423828125,99.0
1756899359.888799,0.09423828125,88.0
1756899359.8907201,0.09423828125,77.0
1756899359.8926873,0.09423828125,78.0
1756899359.8947186,0.09423828125,86.0
1756899359.8966098,0.09423828125,88.0
1756899359.898644,0.09423828125,78.0
1756899359.900637,0.09423828125,61.0
1756899359.9041352,0.09423828125,44.0
1756899359.9044774,0.09423828125,28.0
1756899359.906886,0.09423828125,16.0
1756899359.9086602,0.09423828125,13.0
1756899359.910632,0.09423828125,24.0
1756899359.9126728,0.09423828125,41.0
1756899359.914613,0.09423828125,51.0
1756899359.9165728,0.09423828125,52.0
1756899359.9185498,0.09423828125,53.0
1756899359.9211981,0.09423828125,62.0
1756899359.9233413,0.09423828125,71.0
1756899359.9244945,0.09423828125,66.0
1756899359.9263954,0.09423828125,44.0
1756899359.929128,0.09423828125,21.0
1756899359.930154,0.09423828125,12.0
1756899359.9320707,0.09423828125,15.0
1756899359.9340289,0.09423828125,17.0
1756899359.9360013,0.09423828125,14.0
1756899359.9378834,-0.2108154296875,14.0
1756899359.9393485,-0.2108154296875,14.0
1756899359.9400182,-0.2108154296875,23.0
1756899359.9419148,-0.2108154296875,35.0
1756899359.9439137,-0.2108154296875,43.0
1756899359.9458163,-0.2108154296875,51.0
1756899359.9477317,-0.2108154296875,63.0
1756899359.9496903,-0.2108154296875,77.0
1756899359.9519455,-0.2108154296875,79.0
1756899359.9551835,-0.2108154296875,62.0
1756899359.9561286,-0.2108154296875,38.0
1756899359.9575605,-0.2108154296875,25.0
1756899359.9597986,-0.2108154296875,33.0
1756899359.9618585,-0.2108154296875,52.0
1756899359.9634998,-0.2108154296875,62.0
1756899359.965487,-0.2108154296875,50.0
1756899359.9674635,-0.2108154296875,24.0
1756899359.9694963,-0.2108154296875,-1.0
1756899359.9715579,-0.2108154296875,-10.0
1756899359.973409,-0.2108154296875,2.0
1756899359.9753394,-0.2108154296875,18.0
1756899359.977312,-0.2108154296875,16.0
1756899359.9792926,-0.2108154296875,-15.0
1756899359.9812434,-0.2108154296875,-60.0
1756899359.984084,-0.2108154296875,-86.0
1756899359.985165,-0.2108154296875,-75.0
1756899359.9861517,-0.61767578125,-75.0
1756899359.9871624,-0.61767578125,-44.0
1756899359.9899826,-0.61767578125,-28.0
1756899359.9916198,-0.61767578125,-45.0
1756899359.9929588,-0.61767578125,-79.0
1756899359.9949708,-0.61767578125,-101.0
1756899359.9970267,-0.61767578125,-105.0
1756899359.999059,-0.61767578125,-106.0
1756899360.0046394,-0.61767578125,-112.0
1756899360.0047114,-0.61767578125,-117.0
1756899360.0047553,-0.61767578125,-115.0
1756899360.0067642,-0.61767578125,-118.0
1756899360.0088708,-0.61767578125,-140.0
1756899360.01067,-0.61767578125,-169.0
1756899360.012645,-0.61767578125,-174.0
1756899360.0146012,-0.61767578125,-148.0
1756899360.0169673,-0.61767578125,-124.0
1756899360.0186315,-0.61767578125,-138.0
1756899360.021411,-0.61767578125,-180.0
1756899360.0225718,-0.61767578125,-205.0
1756899360.024485,-0.61767578125,-188.0
1756899360.0263891,-0.61767578125,-161.0
1756899360.0284772,-0.61767578125,-168.0
1756899360.0303447,-0.61767578125,-217.0
1756899360.0322835,-0.61767578125,-264.0
1756899360.034247,-0.61767578125,-270.0
1756899360.0363307,-0.61767578125,-241.0
1756899360.0381749,-0.61767578125,-217.0
1756899360.0419014,-0.61767578125,-225.0
1756899360.0421367,-0.61767578125,-256.0
1756899360.043163,-0.91943359375,-256.0
1756899360.0440385,-0.91943359375,-281.0
1756899360.0461516,-0.91943359375,-280.0
1756899360.0480194,-0.91943359375,-257.0
1756899360.0500195,-0.91943359375,-228.0
1756899360.054304,-0.91943359375,-210.0
1756899360.0544324,-0.91943359375,-210.0
1756899360.0558712,-0.91943359375,-216.0
1756899360.0579517,-0.91943359375,-215.0
1756899360.0598702,-0.91943359375,-201.0
1756899360.0617576,-0.91943359375,-188.0
1756899360.0643845,-0.91943359375,-190.0
1756899360.0656562,-0.91943359375,-208.0
1756899360.067625,-0.91943359375,-224.0
1756899360.0695794,-0.91943359375,-227.0
1756899360.0715985,-0.91943359375,-222.0
1756899360.0737016,-0.91943359375,-224.0
1756899360.075583,-0.91943359375,-232.0
1756899360.0776148,-0.91943359375,-230.0
1756899360.0795302,-0.91943359375,-201.0
1756899360.0814538,-0.91943359375,-153.0
1756899360.0833504,-0.91943359375,-111.0
1756899360.0853105,-0.91943359375,-100.0
1756899360.0873644,-0.91943359375,-113.0
1756899360.0900972,-0.91943359375,-124.0
1756899360.0911188,-1.064453125,-124.0
1756899360.0912635,-1.064453125,-114.0
1756899360.0931747,-1.064453125,-90.0
1756899360.0952032,-1.064453125,-73.0
1756899360.0971508,-1.064453125,-72.0
1756899360.0994143,-1.064453125,-77.0
1756899360.1012676,-1.064453125,-73.0
1756899360.1029985,-1.064453125,-59.0
1756899360.1050582,-1.064453125,-36.0
1756899360.107224,-1.064453125,-7.0
1756899360.1091952,-1.064453125,29.0
1756899360.1111808,-1.064453125,68.0
1756899360.1131377,-1.064453125,92.0
1756899360.1170454,-1.064453125,96.0
1756899360.1185167,-1.064453125,93.0
1756899360.1189005,-1.064453125,102.0
1756899360.121267,-1.064453125,120.0
1756899360.1229663,-1.064453125,129.0
1756899360.1247544,-1.064453125,123.0
1756899360.1269224,-1.064453125,121.0
1756899360.128614,-1.064453125,141.0
1756899360.1306357,-1.064453125,173.0
1756899360.132584,-1.064453125,184.0
1756899360.1344712,-1.064453125,164.0
1756899360.137932,-0.98828125,164.0
1756899360.1381762,-0.98828125,148.0
1756899360.1384728,-0.98828125,174.0
1756899360.140337,-0.98828125,234.0
1756899360.1437337,-0.98828125,280.0
1756899360.1442826,-0.98828125,280.0
1756899360.1462882,-0.98828125,256.0
1756899360.1482003,-0.98828125,253.0
1756899360.1502767,-0.98828125,286.0
1756899360.1522229,-0.98828125,324.0
1756899360.1541853,-0.98828125,329.0
1756899360.1561787,-0.98828125,305.0
1756899360.1580865,-0.98828125,287.0
1756899360.1599874,-0.98828125,295.0
1756899360.1620126,-0.98828125,312.0
1756899360.163989,-0.98828125,310.0
1756899360.1661587,-0.98828125,287.0
1756899360.172722,-0.98828125,267.0
1756899360.1728551,-0.98828125,277.0
1756899360.1731434,-0.98828125,311.0
1756899360.1748178,-0.98828125,346.0
1756899360.1767147,-0.98828125,358.0
1756899360.1779237,-0.98828125,348.0
1756899360.1801686,-0.98828125,335.0
1756899360.1821961,-0.98828125,333.0
1756899360.1837995,-0.98828125,344.0
1756899360.1857715,-0.98828125,355.0
1756899360.1878848,-0.98828125,354.0
1756899360.1899343,-0.98828125,343.0
1756899360.1915925,-0.98828125,332.0
1756899360.1936805,-0.98828125,329.0
1756899360.195405,-0.98828125,329.0
1756899360.197326,-0.98828125,330.0
1756899360.199302,-0.98828125,339.0
1756899360.200946,-0.7099609375,339.0
1756899360.2015831,-0.7099609375,363.0
1756899360.205279,-0.7099609375,388.0
1756899360.20551,-0.7099609375,389.0
1756899360.207283,-0.7099609375,355.0
1756899360.2091908,-0.7099609375,310.0
1756899360.2110846,-0.7099609375,293.0
1756899360.2131934,-0.7099609375,312.0
1756899360.2161098,-0.7099609375,339.0
1756899360.2170022,-0.7099609375,340.0
1756899360.2190406,-0.7099609375,311.0
1756899360.2211788,-0.7099609375,280.0
1756899360.2230625,-0.7099609375,270.0
1756899360.2251287,-0.7099609375,280.0
1756899360.227523,-0.7099609375,291.0
1756899360.2289715,-0.7099609375,296.0
1756899360.2309294,-0.7099609375,295.0
1756899360.2330158,-0.7099609375,290.0
1756899360.2348015,-0.7099609375,280.0
1756899360.2376509,-0.7099609375,268.0
1756899360.2386267,-0.7099609375,260.0
1756899360.2406578,-0.7099609375,263.0
1756899360.241196,0.00029587745666503906,263.0
1756899360.242598,0.00029587745666503906,269.0
1756899360.2455945,0.00029587745666503906,265.0
1756899360.2465,0.00029587745666503906,249.0
1756899360.2485464,0.00029587745666503906,229.0
1756899360.2503998,0.00029587745666503906,218.0
1756899360.2573533,0.00029587745666503906,214.0
1756899360.257486,0.00029587745666503906,211.0
1756899360.2576294,0.00029587745666503906,208.0
1756899360.2595448,0.00029587745666503906,210.0
1756899360.2603207,0.00029587745666503906,221.0
1756899360.2633157,0.00029587745666503906,234.0
1756899360.2673986,0.00029587745666503906,243.0
1756899360.2678354,0.00029587745666503906,252.0
1756899360.2700088,0.00029587745666503906,267.0
1756899360.270284,0.00029587745666503906,284.0
1756899360.272191,0.00029587745666503906,290.0
1756899360.2742171,0.00029587745666503906,275.0
1756899360.2761328,0.00029587745666503906,252.0
1756899360.2782862,0.00029587745666503906,242.0
1756899360.2801135,0.00029587745666503906,246.0
1756899360.2821438,0.00029587745666503906,242.0
1756899360.2839618,0.00029587745666503906,215.0
1756899360.2858944,0.00029587745666503906,184.0
1756899360.2868636,0.642578125,184.0
1756899360.287887,0.642578125,182.0
1756899360.2898154,0.642578125,217.0
1756899360.2917469,0.642578125,251.0
1756899360.2937934,0.642578125,241.0
1756899360.2956662,0.642578125,195.0
1756899360.2975967,0.642578125,163.0
1756899360.2998607,0.642578125,181.0
1756899360.3024144,0.642578125,231.0
1756899360.3036287,0.642578125,261.0
1756899360.3070645,0.642578125,246.0
1756899360.3078556,0.642578125,203.0
1756899360.3095953,0.642578125,168.0
1756899360.3115857,0.642578125,160.0
1756899360.3135412,0.642578125,166.0
1756899360.3154283,0.642578125,174.0
1756899360.3173604,0.642578125,178.0
1756899360.3196645,0.642578125,175.0
1756899360.321297,0.642578125,163.0
1756899360.3233228,0.642578125,145.0
1756899360.3253465,0.642578125,137.0
1756899360.3358762,0.642578125,151.0
1756899360.3359878,0.642578125,183.0
1756899360.336077,0.642578125,209.0
1756899360.336161,0.642578125,211.0
1756899360.3362463,0.642578125,196.0
1756899360.3373964,0.642578125,184.0
1756899360.3386455,0.86669921875,184.0
1756899360.3389666,0.86669921875,188.0
1756899360.340907,0.86669921875,197.0
1756899360.3428562,0.86669921875,194.0
1756899360.3447816,0.86669921875,177.0
1756899360.352301,0.86669921875,160.0
1756899360.3535802,0.86669921875,156.0
1756899360.3551428,0.86669921875,160.0
1756899360.3551884,0.86669921875,152.0
1756899360.3552315,0.86669921875,131.0
1756899360.3567696,0.86669921875,110.0
1756899360.3624935,0.86669921875,105.0
1756899360.3627007,0.86669921875,112.0
1756899360.3627512,0.86669921875,114.0
1756899360.3815672,0.86669921875,101.0
1756899360.381758,0.86669921875,84.0
1756899360.3819146,0.86669921875,82.0
1756899360.3820395,0.86669921875,96.0
1756899360.3821766,0.86669921875,112.0
1756899360.382296,0.86669921875,122.0
1756899360.3824456,0.86669921875,135.0
1756899360.3825643,0.86669921875,166.0
1756899360.3826857,0.86669921875,201.0
1756899360.3828268,0.86669921875,214.0
1756899360.3844447,0.86669921875,194.0
1756899360.3869646,0.97216796875,194.0
1756899360.3877213,0.97216796875,168.0
1756899360.3881292,0.97216796875,166.0
1756899360.390135,0.97216796875,190.0
1756899360.3924217,0.97216796875,203.0
1756899360.39909,0.97216796875,178.0
1756899360.4039896,0.97216796875,131.0
1756899360.4045665,0.97216796875,102.0
1756899360.4047139,0.97216796875,112.0
1756899360.405122,0.97216796875,141.0
1756899360.4051929,0.97216796875,154.0
1756899360.40571,0.97216796875,146.0
1756899360.4076972,0.97216796875,140.0
1756899360.4165301,0.97216796875,159.0
1756899360.4167516,0.97216796875,195.0
1756899360.416803,0.97216796875,218.0
1756899360.416861,0.97216796875,211.0
1756899360.4183896,0.97216796875,181.0
1756899360.4195197,0.97216796875,158.0
1756899360.4214187,0.97216796875,157.0
1756899360.423424,0.97216796875,172.0
1756899360.4253516,0.97216796875,176.0
1756899360.4274662,0.97216796875,155.0
1756899360.429521,0.97216796875,122.0
1756899360.4312363,0.97216796875,109.0
1756899360.4336739,0.97216796875,130.0
1756899360.4352875,0.97216796875,164.0
1756899360.4374416,0.97216796875,179.0
1756899360.439046,0.92626953125,179.0
1756899360.4392595,0.92626953125,165.0
1756899360.4414701,0.92626953125,143.0
1756899360.4431534,0.92626953125,137.0
1756899360.4454048,0.92626953125,145.0
1756899360.4470832,0.92626953125,144.0
1756899360.4493353,0.92626953125,124.0
1756899360.4510412,0.92626953125,99.0
1756899360.454791,0.92626953125,94.0
1756899360.4550502,0.92626953125,109.0
1756899360.4569402,0.92626953125,120.0
1756899360.4589233,0.92626953125,112.0
1756899360.461465,0.92626953125,99.0
1756899360.4628243,0.92626953125,103.0
1756899360.4657497,0.92626953125,134.0
1756899360.4668114,0.92626953125,168.0
1756899360.4686663,0.92626953125,171.0
1756899360.4706888,0.92626953125,138.0
1756899360.4726915,0.92626953125,92.0
1756899360.4746215,0.92626953125,70.0
1756899360.476623,0.92626953125,83.0
1756899360.4805243,0.92626953125,112.0
1756899360.4870267,0.61572265625,112.0
1756899360.489382,0.61572265625,129.0
1756899360.4896061,0.61572265625,124.0
1756899360.489815,0.61572265625,112.0
1756899360.4904244,0.61572265625,114.0
1756899360.4906232,0.61572265625,129.0
1756899360.4908307,0.61572265625,142.0
1756899360.492643,0.61572265625,140.0
1756899360.4946177,0.61572265625,127.0
1756899360.4962838,0.61572265625,113.0
1756899360.506734,0.61572265625,102.0
1756899360.507109,0.61572265625,88.0
1756899360.507321,0.61572265625,73.0
1756899360.50752,0.61572265625,72.0
1756899360.5077698,0.61572265625,96.0
1756899360.508016,0.61572265625,131.0
1756899360.5102026,0.61572265625,149.0
1756899360.511922,0.61572265625,142.0
1756899360.5143228,0.61572265625,130.0
1756899360.515855,0.61572265625,138.0
1756899360.517819,0.61572265625,165.0
1756899360.5198345,0.61572265625,181.0
1756899360.525314,0.61572265625,162.0
1756899360.5256243,0.61572265625,120.0
1756899360.5258248,0.61572265625,86.0
1756899360.5277023,0.61572265625,76.0
1756899360.5296752,0.61572265625,78.0
1756899360.5318325,0.61572265625,70.0
1756899360.5393255,0.61572265625,49.0
1756899360.554844,0.61572265625,31.0
1756899360.5549572,0.241943359375,31.0
1756899360.5551424,0.241943359375,20.0
1756899360.5553548,0.241943359375,7.0
1756899360.5555863,0.241943359375,-15.0
1756899360.559835,0.241943359375,-35.0
1756899360.5607662,0.241943359375,-39.0
1756899360.5613925,0.241943359375,-28.0
1756899360.5615973,0.241943359375,-16.0
1756899360.5618048,0.241943359375,-18.0
1756899360.5624528,0.241943359375,-28.0
1756899360.562654,0.241943359375,-26.0
1756899360.5629191,0.241943359375,-8.0
1756899360.5632584,0.241943359375,15.0
1756899360.5635543,0.241943359375,23.0
1756899360.5647008,0.241943359375,12.0
1756899360.5655963,0.241943359375,-11.0
1756899360.57165,0.241943359375,-35.0
1756899360.572067,0.241943359375,-53.0
1756899360.5722969,0.241943359375,-64.0
1756899360.5729449,0.241943359375,-67.0
1756899360.575132,0.241943359375,-67.0
1756899360.5775654,0.241943359375,-71.0
1756899360.5787952,0.241943359375,-81.0
1756899360.5808501,0.241943359375,-88.0
1756899360.5827422,0.241943359375,-82.0
1756899360.5847063,0.241943359375,-63.0
1756899360.586587,0.241943359375,-42.0
1756899360.588115,-0.049896240234375,-42.0
1756899360.5886953,-0.049896240234375,-29.0
1756899360.5906055,-0.049896240234375,-21.0
1756899360.5925431,-0.049896240234375,-11.0
1756899360.6007285,-0.049896240234375,3.0
1756899360.6033485,-0.049896240234375,12.0
1756899360.603595,-0.049896240234375,7.0
1756899360.6037927,-0.049896240234375,-4.0
1756899360.604,-0.049896240234375,-5.0
1756899360.604377,-0.049896240234375,11.0
1756899360.6071157,-0.049896240234375,31.0
1756899360.6087067,-0.049896240234375,39.0
1756899360.6104052,-0.049896240234375,34.0
1756899360.6122181,-0.049896240234375,32.0
1756899360.614785,-0.049896240234375,44.0
1756899360.616652,-0.049896240234375,61.0
1756899360.6183436,-0.049896240234375,70.0
1756899360.6201632,-0.049896240234375,72.0
1756899360.6223426,-0.049896240234375,76.0
1756899360.6240337,-0.049896240234375,86.0
1756899360.6263454,-0.049896240234375,90.0
1756899360.6281803,-0.049896240234375,76.0
1756899360.6302555,-0.049896240234375,54.0
1756899360.6318734,-0.049896240234375,49.0
1756899360.6348033,-0.049896240234375,74.0
1756899360.6358356,-0.049896240234375,106.0
1756899360.6377602,-0.049896240234375,120.0
1756899360.6388133,-0.263671875,120.0
1756899360.6400259,-0.263671875,107.0
1756899360.6416566,-0.263671875,91.0
1756899360.643677,-0.263671875,97.0
1756899360.645563,-0.263671875,129.0
1756899360.652543,-0.263671875,166.0
1756899360.65384,-0.263671875,182.0
1756899360.6545227,-0.263671875,167.0
1756899360.6574519,-0.263671875,136.0
1756899360.6576674,-0.263671875,119.0
1756899360.6578634,-0.263671875,135.0
1756899360.659422,-0.263671875,170.0
1756899360.6615236,-0.263671875,191.0
1756899360.6633196,-0.263671875,180.0
1756899360.6654801,-0.263671875,158.0
1756899360.667362,-0.263671875,154.0
1756899360.6694155,-0.263671875,174.0
1756899360.6716378,-0.263671875,191.0
1756899360.6734543,-0.263671875,180.0
1756899360.6757057,-0.263671875,155.0
1756899360.6773517,-0.263671875,144.0
1756899360.6791477,-0.263671875,160.0
1756899360.680941,-0.263671875,181.0
1756899360.6829896,-0.263671875,185.0
1756899360.685346,-0.263671875,171.0
1756899360.6870143,-0.263671875,157.0
1756899360.687151,-0.5791015625,157.0
1756899360.6888235,-0.5791015625,153.0
1756899360.6908386,-0.5791015625,156.0
1756899360.6928864,-0.5791015625,162.0
1756899360.7047112,-0.5791015625,170.0
1756899360.705379,-0.5791015625,175.0
1756899360.7056534,-0.5791015625,162.0
1756899360.7058532,-0.5791015625,133.0
1756899360.7065203,-0.5791015625,112.0
1756899360.7067199,-0.5791015625,121.0
1756899360.7069237,-0.5791015625,148.0
1756899360.7085037,-0.5791015625,157.0
1756899360.7105465,-0.5791015625,129.0
1756899360.7125497,-0.5791015625,88.0
1756899360.7144961,-0.5791015625,74.0
1756899360.7163327,-0.5791015625,89.0
1756899360.718613,-0.5791015625,96.0
1756899360.7205143,-0.5791015625,58.0
