0,1,2
1756899354.6766798,0.10558665129954023,0.7485929286901853
1756899354.6785924,0.10558665129954023,0.7521469354033661
1756899354.680369,0.10558665129954023,0.7503699320467757
1756899354.682516,0.10558665129954023,0.7539239387599564
1756899354.6844137,0.10558665129954023,0.7574779454731373
1756899354.6862488,0.10558665129954023,0.7485929286901853
1756899354.6881888,0.10558665129954023,0.72371488169792
1756899354.690151,0.10558665129954023,0.6988368347056546
1756899354.6920002,0.10558665129954023,0.6952828279924738
1756899354.6941867,0.10558665129954023,0.7130528615583777
1756899354.696206,0.10558665129954023,0.72371488169792
1756899354.6981783,0.10558665129954023,0.6988368347056546
1756899354.700166,0.10558665129954023,0.6473037373645334
1756899354.7021368,0.10558665129954023,0.6064326601629546
1756899354.7040832,0.10558665129954023,0.6135406735893161
1756899354.7060623,0.10558665129954023,0.6579657575040757
1756899354.7084775,0.10558665129954023,0.6881748145661123
1756899354.709984,0.10558665129954023,0.6721817843567988
1756899354.7119522,0.10558665129954023,0.622425690372268
1756899354.7139003,0.10558665129954023,0.5957706400234123
1756899354.715836,0.10558665129954023,0.6170946803024969
1756899354.7179558,0.10558665129954023,0.6632967675738469
1756899354.7199702,0.10558665129954023,0.691728821279293
1756899354.7219405,0.10558665129954023,0.6863978112095219
1756899354.7239091,0.10558665129954023,0.6650737709304373
1756899354.72577,0.10558665129954023,0.6579657575040757
1756899354.7278314,0.10558665129954023,0.6650737709304373
1756899354.730085,0.10558665129954023,0.6668507742870277
1756899354.7315967,0.10558665129954023,0.654411750790895
1756899354.733571,0.10558665129954023,0.6401957239381719
1756899354.7355611,0.10558665129954023,0.6437497306513527
1756899354.7375002,0.10558665129954023,0.668627777643618
1756899354.7394788,0.10558665129954023,0.6899518179227027
1756899354.7415433,0.10558665129954023,0.6935058246358834
1756899354.7435534,0.10558665129954023,0.6863978112095219
1756899354.7455556,0.10558665129954023,0.6988368347056546
1756899354.7474988,0.10558665129954023,0.7414849152638238
1756899354.7497876,0.10558665129954023,0.7912410092483546
1756899354.7514331,0.10558665129954023,0.8090110428142584
1756899354.7532382,0.10558665129954023,0.7805789891088123
1756899354.7550998,0.10558665129954023,0.7308228951242814
1756899354.7571712,0.10558665129954023,0.6935058246358834
1756899354.759129,0.10558665129954023,0.6668507742870277
1756899354.7610743,0.10558665129954023,0.6259796970854489
1756899354.76317,0.10558665129954023,0.5584535695350142
1756899354.7649846,0.10558665129954023,0.49981245876753155
1756899354.7670598,0.10558665129954023,0.48737343527139887
1756899354.7726102,0.10558665129954023,0.5246905057597969
1756899354.7796197,0.10558665129954023,0.5708925930311469
1756899354.7798166,0.10558665129954023,0.5975476433800027
1756899354.7799757,0.10558665129954023,0.6188716836590873
1756899354.7801294,0.10558665129954023,0.6561887541474853
1756899354.782927,0.10558665129954023,0.7041678447754257
1756899354.7831223,0.10558665129954023,0.7325998984808719
1756899354.7832808,0.10558665129954023,0.7166068682715584
1756899354.7846866,0.10558665129954023,0.6757357910699796
1756899354.7867246,0.10558665129954023,0.6473037373645334
1756899354.788658,0.10558665129954023,0.6330877105118103
1756899354.7909086,0.10558665129954023,0.6135406735893161
1756899354.7927291,0.10558665129954023,0.5726695963877373
1756899354.7946951,0.10558665129954023,0.53890653261252
1756899354.7966747,0.10558665129954023,0.5477915493954719
1756899354.7986376,0.10558665129954023,0.5939936366668219
1756899354.8005972,0.10558665129954023,0.6366417172249911
1756899354.802603,0.10558665129954023,0.6348647138684007
1756899354.8045397,0.10558665129954023,0.5957706400234123
1756899354.8065112,0.10558665129954023,0.5673385863179662
1756899354.8084595,0.10558665129954023,0.576223603100918
1756899354.8104184,0.10558665129954023,0.6046556568063642
1756899354.8123343,0.10558665129954023,0.6117636702327257
1756899354.814239,0.10558665129954023,0.5833316165272796
1756899354.8163276,0.10558665129954023,0.5460145460388816
1756899354.8183134,0.10558665129954023,0.5442375426822912
1756899354.820253,0.10558665129954023,0.5833316165272796
1756899354.8223372,0.10558665129954023,0.63131070715522
1756899354.8241904,0.10558665129954023,0.6490807407211239
1756899354.8263955,0.10558665129954023,0.6348647138684007
1756899354.8281102,0.10558665129954023,0.6170946803024969
1756899354.8300748,0.10558665129954023,0.6206486870156777
1756899354.8322637,0.10558665129954023,0.6330877105118103
1756899354.8340015,0.10558665129954023,0.622425690372268
1756899354.8364327,0.10558665129954023,0.5673385863179662
1756899354.8382366,0.10558665129954023,0.4909274419845796
1756899354.8400054,0.10558665129954023,0.4429483513566392
1756899354.841891,0.10558665129954023,0.4536103714961815
1756899354.8438327,0.10558665129954023,0.49625845205435076
1756899354.8458636,0.10558665129954023,0.5140284856202546
1756899354.847792,0.10558665129954023,0.4802654218450373
1756899354.84973,0.10558665129954023,0.42340131443414497
1756899354.8517132,0.10558665129954023,0.4074082842248315
1756899354.8535976,0.10558665129954023,0.45183336813959113
1756899354.8557138,0.10558665129954023,0.5211364990466162
1756899354.8574705,0.10558665129954023,0.553122559465243
1756899354.859808,0.10558665129954023,0.5211364990466162
1756899354.861519,0.10558665129954023,0.45716437820936234
1756899354.8638003,0.10558665129954023,0.4198473077209642
1756899354.8655248,0.10558665129954023,0.4305093278605065
1756899354.8674266,0.10558665129954023,0.46427239163572387
1756899354.869397,0.10558665129954023,0.4802654218450373
1756899354.8713603,0.10558665129954023,0.4536103714961815
1756899354.8733158,0.10558665129954023,0.40030027079846997
1756899354.8753004,0.10558665129954023,0.3629832003100719
1756899354.877156,0.10558665129954023,0.36653720702325265
1756899354.8793738,0.10558665129954023,0.3985232674418796
1756899354.8869195,0.10558665129954023,0.42517831779073534
1756899354.8875332,0.10558665129954023,0.42873232450391613
1756899354.8881226,0.10558665129954023,0.4091852875814219
1756899354.8887265,0.10558665129954023,0.39319225737210844
1756899354.8893898,0.10558665129954023,0.3914152540155181
1756899354.8909984,0.10558665129954023,0.3914152540155181
1756899354.892974,0.10558665129954023,0.38253023723256613
1756899354.8949652,0.10558665129954023,0.37009121373643344
1756899354.8969746,0.10558665129954023,0.35587518688371034
1756899354.898842,0.10558665129954023,0.3381051533178065
1756899354.9009364,0.10558665129954023,0.31145010296895076
1756899354.902816,0.10558665129954023,0.28479505262009497
1756899354.9047704,0.10558665129954023,0.2741330324805527
1756899354.90674,0.10558665129954023,0.2830180492635046
1756899354.90891,0.10558665129954023,0.2936800694030469
1756899354.910658,0.10558665129954023,0.2830180492635046
1756899354.9126654,0.10558665129954023,0.24747798213169692
1756899354.9145148,0.10558665129954023,0.21193791499988926
1756899354.916661,0.10558665129954023,0.1959448847905758
1756899354.9184291,0.10558665129954023,0.19416788143398542
1756899354.920514,0.10558665129954023,0.18883687136421426
1756899354.922542,0.10558665129954023,0.16040481765876813
1756899354.9245334,0.10558665129954023,0.12131074381377967
1756899354.926362,0.10558665129954023,0.09110168675174314
1756899354.9283528,0.10558665129954023,0.08577067668197198
1756899354.9303238,0.10558665129954023,0.10354071024787583
1756899354.9323606,0.10558665129954023,0.12308774717037005
1756899354.9344382,0.10558665129954023,0.13197276395332197
1756899354.9361107,0.10558665129954023,0.1408577807362739
1756899354.9381666,0.10558665129954023,0.1621818210153585
1756899354.9409497,0.10558665129954023,0.2083839082867085
1756899354.9420066,0.10558665129954023,0.2510319888448777
1756899354.944091,0.10558665129954023,0.26169400898442
1756899354.9471452,0.10558665129954023,0.24570097877510655
1756899354.9481544,0.10558665129954023,0.23503895863556423
1756899354.9499729,0.10558665129954023,0.25636299891464887
1756899354.9519436,0.10558665129954023,0.2901260626898661
1756899354.9539125,0.10558665129954023,0.2936800694030469
1756899354.956008,0.10558665129954023,0.26169400898442
1756899354.9579737,0.10558665129954023,0.238592965348745
1756899354.9598193,0.10558665129954023,0.26880202241078155
1756899354.9618392,0.10558665129954023,0.33455114660462576
1756899354.9637332,0.10558665129954023,0.3736452204496142
1756899354.965248,0.10558665129954023,0.35765219024030076
1756899354.968059,0.10558665129954023,0.3256661298216738
1756899354.969179,0.10558665129954023,0.3363281499612161
1756899354.971143,0.10558665129954023,0.39319225737210844
1756899354.973101,0.10558665129954023,0.43228633121709686
1756899354.975067,0.10558665129954023,0.4074082842248315
1756899354.9770937,0.10558665129954023,0.34343616338757765
1756899354.979012,0.10558665129954023,0.30789609625576997
1756899354.9810233,0.10558665129954023,0.3256661298216738
1756899354.983688,0.10558665129954023,0.35409818352711997
1756899354.984948,0.10558665129954023,0.34343616338757765
1756899354.9869134,0.10558665129954023,0.2936800694030469
1756899354.9889188,0.10558665129954023,0.2599170056278296
1756899354.9908075,0.10558665129954023,0.2723560291239623
1756899354.992809,0.10558665129954023,0.30789609625576997
1756899354.9947717,0.10558665129954023,0.31500410968213155
1756899354.9967084,0.10558665129954023,0.28834905933327576
1756899354.9987268,0.10558665129954023,0.2670250190541911
1756899355.0006807,0.10558665129954023,0.27946404255032387
1756899355.0025983,0.10558665129954023,0.31145010296895076
1756899355.00461,0.10558665129954023,0.3292201365348546
1756899355.0065763,0.10558665129954023,0.3221121231084931
1756899355.0084429,0.10558665129954023,0.31145010296895076
1756899355.0105047,0.10558665129954023,0.30789609625576997
1756899355.012672,0.10558665129954023,0.2990110794728181
1756899355.014394,0.10558665129954023,0.2741330324805527
1756899355.0163956,0.10558665129954023,0.2634710123410104
1756899355.0183723,0.10558665129954023,0.30078808282940844
1756899355.0202963,0.10558665129954023,0.37009121373643344
1756899355.0223148,0.10558665129954023,0.40385427751165076
1756899355.024269,0.10558665129954023,0.3629832003100719
1756899355.0261936,0.10558665129954023,0.2901260626898661
1756899355.028162,0.10558665129954023,0.26880202241078155
1756899355.0301657,0.10558665129954023,0.3221121231084931
1756899355.0321112,0.10558665129954023,0.3843072405891565
1756899355.0340889,0.10558665129954023,0.3754222238062046
1756899355.0360596,0.10558665129954023,0.2936800694030469
1756899355.03799,0.10558665129954023,0.2101609116432989
1756899355.0399847,0.10558665129954023,0.17995185458126234
1756899355.0419576,0.10558665129954023,0.1870598680076239
1756899355.0438778,0.10558665129954023,0.18350586129444313
1756899355.0458815,0.10558665129954023,0.15685081094558737
1756899355.047854,0.10558665129954023,0.13908077737968352
1756899355.0497758,0.10558665129954023,0.1515198008758162
1756899355.0517845,0.10558665129954023,0.16928983444172005
1756899355.053754,0.10558665129954023,0.1497427975192258
1756899355.055676,0.10558665129954023,0.08754768003856236
1756899355.057671,0.10558665129954023,0.016467545774946992
1756899355.0596426,0.10558665129954023,-0.026180534783222232
1756899355.0615745,0.10558665129954023,-0.05816659520184914
1756899355.0635686,0.10558665129954023,-0.1292467294654645
1756899355.0655644,0.10558665129954023,-0.2714069979926953
1756899355.0674143,0.10558665129954023,-0.4633233605044567
1756899355.069491,0.10558665129954023,-0.6481317095898567
1756899355.0714486,0.10558665129954023,-0.7991769949000394
1756899355.073366,0.10558665129954023,-0.9200132231481856
1756899355.0754814,0.10558665129954023,-1.0248564211870181
1756899355.0773358,0.10558665129954023,-1.1083755789467664
1756899355.0792549,0.10558665129954023,-1.1456926494351645
1756899355.0812657,0.10558665129954023,-1.120814602442899
1756899355.0831895,0.10558665129954023,-1.0319644346133798
1756899355.0854237,0.10558665129954023,-0.8844731560163778
1756899355.0871618,0.10558665129954023,-0.6872257834348452
1756899355.0891466,0.10558665129954023,-0.4544383437215049
1756899355.0910523,0.10558665129954023,-0.21454289058180295
1756899355.0930538,0.10558665129954023,0.005805525635404687
1756899355.095028,0.10558665129954023,0.19239087807739505
1756899355.096953,0.10558665129954023,0.3327741432480354
1756899355.098914,0.10558665129954023,0.4216243110775546
1756899355.1009264,0.10558665129954023,0.45716437820936234
1756899355.1028402,0.10558665129954023,0.4536103714961815
1756899355.1048496,0.10558665129954023,0.43584033793027765
1756899355.1068184,0.10558665129954023,0.4180703043643738
1756899355.10876,0.10558665129954023,0.3967462640852892
1756899355.110742,0.10558665129954023,0.36653720702325265
1756899355.112712,0.10558665129954023,0.3327741432480354
1756899355.1146407,0.10558665129954023,0.32033511975190265
1756899355.116732,0.10558665129954023,0.3381051533178065
1756899355.1185143,0.10558665129954023,0.3718682170930238
1756899355.1205063,0.10558665129954023,0.3967462640852892
1756899355.1225266,0.10558665129954023,0.40207727415506034
1756899355.1245077,0.10558665129954023,0.3985232674418796
1756899355.126491,0.10558665129954023,0.38963825065892765
1756899355.1284423,0.10558665129954023,0.3683142103798431
1756899355.1305182,0.10558665129954023,0.3327741432480354
1756899355.1323702,0.10558665129954023,0.29190306604645655
1756899355.1345243,0.10558665129954023,0.2634710123410104
1756899355.1362665,0.10558665129954023,0.25636299891464887
1756899355.138457,0.10558665129954023,0.2599170056278296
1756899355.1401894,0.10558665129954023,0.25814000227123923
1756899355.1422138,0.10558665129954023,0.24570097877510655
1756899355.1441169,0.10558665129954023,0.238592965348745
1756899355.1461194,0.10558665129954023,0.24747798213169692
1756899355.1481056,0.10558665129954023,0.26880202241078155
1756899355.1500163,0.10558665129954023,0.2901260626898661
1756899355.1520305,0.10558665129954023,0.2990110794728181
1756899355.15399,0.10558665129954023,0.3025650861859988
1756899355.1559155,0.10558665129954023,0.3132271063255411
1756899355.157912,0.10558665129954023,0.3327741432480354
1756899355.159886,0.10558665129954023,0.3523211801705296
1756899355.161819,0.10558665129954023,0.35765219024030076
1756899355.163806,0.10558665129954023,0.3452131667441681
1756899355.165788,0.10558665129954023,0.32033511975190265
1756899355.167859,0.10558665129954023,0.2972340761162277
1756899355.1696618,0.10558665129954023,0.28124104590691423
1756899355.1716914,0.10558665129954023,0.27946404255032387
1756899355.1736128,0.10558665129954023,0.28479505262009497
1756899355.1755798,0.10558665129954023,0.2901260626898661
1756899355.177572,0.10558665129954023,0.2972340761162277
1756899355.1795118,0.10558665129954023,0.3096730996123604
1756899355.1814556,0.10558665129954023,0.3292201365348546
1756899355.183428,0.10558665129954023,0.3416591600309873
1756899355.185667,0.10558665129954023,0.33099713989144497
1756899355.1873968,0.10558665129954023,0.2990110794728181
1756899355.1893694,0.10558665129954023,0.26880202241078155
1756899355.1912985,0.10558665129954023,0.25636299891464887
1756899355.193291,0.10558665129954023,0.25636299891464887
1756899355.1952724,0.10558665129954023,0.24570097877510655
1756899355.1971378,0.10558665129954023,0.22259993513943158
1756899355.199201,0.10558665129954023,0.20305289821693734
1756899355.2011056,0.10558665129954023,0.21193791499988926
1756899355.2030897,0.10558665129954023,0.24392397541851615
1756899355.205041,0.10558665129954023,0.2741330324805527
1756899355.2070067,0.10558665129954023,0.28834905933327576
1756899355.2090547,0.10558665129954023,0.28479505262009497
1756899355.210972,0.10558665129954023,0.2723560291239623
1756899355.2130008,0.10558665129954023,0.2599170056278296
1756899355.214926,0.10558665129954023,0.24214697206192579
1756899355.21693,0.10558665129954023,0.22259993513943158
1756899355.2188778,0.10558665129954023,0.2083839082867085
1756899355.220746,0.10558665129954023,0.19949889150375658
1756899355.2228267,0.10558665129954023,0.19772188814716618
1756899355.2247555,0.10558665129954023,0.21549192171307002
1756899355.2267497,0.10558665129954023,0.2492549854882873
1756899355.228722,0.10558665129954023,0.28124104590691423
1756899355.230693,0.10558665129954023,0.28834905933327576
1756899355.232613,0.10558665129954023,0.2723560291239623
1756899355.2345688,0.10558665129954023,0.2599170056278296
1756899355.2365122,0.10558665129954023,0.26524801569760076
1756899355.2374787,2.0713588851215463,0.26524801569760076
1756899355.2384696,2.0713588851215463,0.2741330324805527
1756899355.2405145,2.0713588851215463,0.24392397541851615
1756899355.2424388,2.0713588851215463,0.17995185458126234
1756899355.2444384,2.0713588851215463,0.1301957605967316
1756899355.2464252,2.0713588851215463,0.13374976730991237
1756899355.248299,2.0713588851215463,0.17639784786808158
1756899355.250311,2.0713588851215463,0.2066069049301181
1756899355.2523105,2.0713588851215463,0.19061387472080465
1756899355.2542832,2.0713588851215463,0.15329680423240657
1756899355.2561612,2.0713588851215463,0.1301957605967316
1756899355.2582064,2.0713588851215463,0.13552677066650273
1756899355.2603006,2.0713588851215463,0.1426347840928643
1756899355.2620444,2.0713588851215463,0.1301957605967316
1756899355.264118,2.0713588851215463,0.09998670353469506
1756899355.2660291,2.0713588851215463,0.0715546498292489
1756899355.2680557,2.0713588851215463,0.05200761290675467
1756899355.2699575,2.0713588851215463,0.04312259612380275
1756899355.271984,2.0713588851215463,0.04667660283698352
1756899355.273891,2.0713588851215463,0.06444663640288738
1756899355.2758653,2.0713588851215463,0.09643269682151429
1756899355.2778366,2.0713588851215463,0.11953374045718929
1756899355.2797544,2.0713588851215463,0.11064872367423736
1756899355.2817066,2.0713588851215463,0.0715546498292489
1756899355.2837238,2.0713588851215463,0.03423757934085083
1756899355.286813,2.0713588851215463,0.027129565914489295
1756899355.2876456,2.0713588851215463,0.04134559276721237
1756899355.2895598,2.0713588851215463,0.04134559276721237
1756899355.291721,2.0713588851215463,0.004028522278814303
1756899355.2935386,2.0713588851215463,-0.04395056834912607
1756899355.2938206,1.5207405978946043,-0.04395056834912607
1756899355.2955425,1.5207405978946043,-0.059943598558439525
1756899355.2974672,1.5207405978946043,-0.027957538139812617
1756899355.2994835,1.5207405978946043,0.02002155248812776
1756899355.30142,1.5207405978946043,0.04134559276721237
1756899355.303362,1.5207405978946043,0.021798555844718143
1756899355.305385,1.5207405978946043,-0.019072521356860696
1756899355.3073502,1.5207405978946043,-0.05638959184525876
1756899355.3092735,1.5207405978946043,-0.08304464219411452
1756899355.311235,1.5207405978946043,-0.10436868247319914
1756899355.3132567,1.5207405978946043,-0.1310237328220549
1756899355.315066,1.5207405978946043,-0.16834080331045295
1756899355.317121,1.5207405978946043,-0.22342790736475487
1756899355.3191414,1.5207405978946043,-0.27673800806246646
1756899355.3210647,1.5207405978946043,-0.2909540349151895
1756899355.323025,1.5207405978946043,-0.25008295771361067
1756899355.325009,1.5207405978946043,-0.18433383351976643
1756899355.3269436,1.5207405978946043,-0.15767878317091066
1756899355.3289752,1.5207405978946043,-0.20032686372907987
1756899355.3309329,1.5207405978946043,-0.2714069979926953
1756899355.3329003,1.5207405978946043,-0.30872406848109335
1756899355.3348324,1.5207405978946043,-0.29628504498496067
1756899355.3358245,0.9939367320025099,-0.29628504498496067
1756899355.336763,0.9939367320025099,-0.2802920147756472
1756899355.3387694,0.9939367320025099,-0.3033930584113222
1756899355.3407588,0.9939367320025099,-0.34248713225631067
1756899355.3426986,0.9939367320025099,-0.35137214903926256
1756899355.3446932,0.9939367320025099,-0.32116309197722603
1756899355.346655,0.9939367320025099,-0.2874000282020087
1756899355.3485744,0.9939367320025099,-0.283846021488828
1756899355.3505297,0.9939367320025099,-0.2927310382717799
1756899355.3525524,0.9939367320025099,-0.2874000282020087
1756899355.3544843,0.9939367320025099,-0.26607598792292414
1756899355.3564448,0.9939367320025099,-0.2571909711399722
1756899355.3583958,0.9939367320025099,-0.2785150114190568
1756899355.3604202,0.9939367320025099,-0.3140550785508645
1756899355.362253,0.9939367320025099,-0.3389331255431299
1756899355.3643672,0.9939367320025099,-0.3495951456826722
1756899355.3662713,0.9939367320025099,-0.3460411389694914
1756899355.368225,0.9939367320025099,-0.32116309197722603
1756899355.3702102,0.9939367320025099,-0.2696299946361049
1756899355.372199,0.9939367320025099,-0.2109888838686222
1756899355.3741665,0.9939367320025099,-0.17900282344999527
1756899355.3761003,0.9939367320025099,-0.16656379995386258
1756899355.3781154,0.9939367320025099,-0.1416857529615972
1756899355.380038,0.9939367320025099,-0.07771363212434337
1756899355.382053,0.9939367320025099,-0.004856494504137619
1756899355.3841088,0.9939367320025099,0.018244549131537374
1756899355.3858972,0.9939367320025099,-0.015518514643679926
1756899355.3863811,0.32947829430368025,-0.015518514643679926
1756899355.3878996,0.32947829430368025,-0.05461258848866838
1756899355.3898635,0.32947829430368025,-0.04572757170571646
1756899355.3918235,0.32947829430368025,0.004028522278814303
1756899355.3939438,0.32947829430368025,0.04489959948039314
1756899355.3957856,0.32947829430368025,0.05023060955016429
1756899355.3977537,0.32947829430368025,0.04312259612380275
1756899355.3997278,0.32947829430368025,0.06266963304629698
1756899355.401674,0.32947829430368025,0.11242572703082775
1756899355.403612,0.32947829430368025,0.1657358277285393
1756899355.405594,0.32947829430368025,0.20127589486034697
1756899355.4075978,0.32947829430368025,0.22259993513943158
1756899355.409479,0.32947829430368025,0.24214697206192579
1756899355.4115329,0.32947829430368025,0.26169400898442
1756899355.4134543,0.32947829430368025,0.2830180492635046
1756899355.415481,0.32947829430368025,0.3096730996123604
1756899355.4174242,0.32947829430368025,0.35054417681393923
1756899355.4193587,0.32947829430368025,0.3914152540155181
1756899355.4213176,0.32947829430368025,0.4180703043643738
1756899355.423314,0.32947829430368025,0.4340633345736873
1756899355.425251,0.32947829430368025,0.45716437820936234
1756899355.427238,0.32947829430368025,0.49270444534117
1756899355.4292088,0.32947829430368025,0.5317985191861585
1756899355.4311788,0.32947829430368025,0.5548995628218335
1756899355.433102,0.32947829430368025,0.5673385863179662
1756899355.4342296,0.06373100168071631,0.5673385863179662
1756899355.4351175,0.06373100168071631,0.58510861988387
1756899355.4369602,0.06373100168071631,0.608209663519545
1756899355.4390173,0.06373100168071631,0.6188716836590873
1756899355.440908,0.06373100168071631,0.6099866668761353
1756899355.4429324,0.06373100168071631,0.6011016500931834
1756899355.444883,0.06373100168071631,0.6153176769459066
1756899355.4468856,0.06373100168071631,0.6490807407211239
1756899355.448902,0.06373100168071631,0.67751279442657
1756899355.4507947,0.06373100168071631,0.6881748145661123
1756899355.452795,0.06373100168071631,0.691728821279293
1756899355.4549165,0.06373100168071631,0.7041678447754257
1756899355.4566438,0.06373100168071631,0.7183838716281488
1756899355.458668,0.06373100168071631,0.7112758582017873
1756899355.4606602,0.06373100168071631,0.6846208078529316
1756899355.462544,0.06373100168071631,0.6704047810002084
1756899355.4645455,0.06373100168071631,0.700613838062245
1756899355.4664822,0.06373100168071631,0.7539239387599564
1756899355.468416,0.06373100168071631,0.7876870025351738
1756899355.4704475,0.06373100168071631,0.7770249823956314
1756899355.4724233,0.06373100168071631,0.746815925333595
1756899355.4744267,0.06373100168071631,0.7432619186204141
1756899355.4763663,0.06373100168071631,0.7770249823956314
1756899355.4784243,0.06373100168071631,0.8232270696669814
1756899355.480278,0.06373100168071631,0.8463281133026564
1756899355.482257,0.06373100168071631,0.839220099876295
1756899355.484208,0.06373100168071631,0.8143420528840295
1756899355.486219,-0.31116572206030135,0.8143420528840295
1756899355.4869244,-0.31116572206030135,0.784132995821993
1756899355.4886546,-0.31116572206030135,0.7592549488297277
1756899355.490148,-0.31116572206030135,0.7450389219770046
1756899355.4921114,-0.31116572206030135,0.7521469354033661
1756899355.4940722,-0.31116572206030135,0.7788019857522218
1756899355.4960654,-0.31116572206030135,0.8054570361010777
1756899355.4978683,-0.31116572206030135,0.8125650495274391
1756899355.499969,-0.31116572206030135,0.7947950159615353
1756899355.5019104,-0.31116572206030135,0.7823559924654027
1756899355.5038524,-0.31116572206030135,0.793018012604945
1756899355.50587,-0.31116572206030135,0.8214500663103911
1756899355.5078356,-0.31116572206030135,0.8463281133026564
1756899355.5178788,-0.31116572206030135,0.8463281133026564
1756899355.5182776,-0.31116572206030135,0.8285580797367527
1756899355.5184803,-0.31116572206030135,0.8019030293878968
1756899355.5190597,-0.31116572206030135,0.7788019857522218
1756899355.5192635,-0.31116572206030135,0.7645859588994988
1756899355.51946,-0.31116572206030135,0.7734709756824507
1756899355.5222075,-0.31116572206030135,0.8019030293878968
1756899355.5240142,-0.31116572206030135,0.830335083093343
1756899355.5255442,-0.31116572206030135,0.8338890898065238
1756899355.527506,-0.31116572206030135,0.8090110428142584
1756899355.5294435,-0.31116572206030135,0.7894640058917641
1756899355.5313823,-0.31116572206030135,0.8107880461708488
1756899355.533492,-0.31116572206030135,0.8640981468685603
1756899355.5341604,-0.7964747628992511,0.8640981468685603
1756899355.5352726,-0.7964747628992511,0.9031922207135488
1756899355.5373592,-0.7964747628992511,0.8925302005740064
1756899355.539255,-0.7964747628992511,0.8409971032328853
1756899355.5413852,-0.7964747628992511,0.793018012604945
1756899355.5459192,-0.7964747628992511,0.7859099991785834
1756899355.5469594,-0.7964747628992511,0.8196730629538007
1756899355.5492415,-0.7964747628992511,0.8498821200158372
1756899355.5496857,-0.7964747628992511,0.8338890898065238
1756899355.5533304,-0.7964747628992511,0.76991696896927
1756899355.553651,-0.7964747628992511,0.6988368347056546
1756899355.5651848,-0.7964747628992511,0.6828438044963411
1756899355.565675,-0.7964747628992511,0.7361539051940527
1756899355.5658777,-0.7964747628992511,0.8036800327444873
1756899355.5660748,-0.7964747628992511,0.8214500663103911
1756899355.5663643,-0.7964747628992511,0.7770249823956314
1756899355.566563,-0.7964747628992511,0.7308228951242814
1756899355.5667582,-0.7964747628992511,0.7432619186204141
1756899355.568806,-0.7964747628992511,0.8107880461708488
1756899355.5707133,-0.7964747628992511,0.8658751502251507
1756899355.572872,-0.7964747628992511,0.8587671367987891
1756899355.5745876,-0.7964747628992511,0.8054570361010777
1756899355.5765347,-0.7964747628992511,0.7645859588994988
1756899355.5784962,-0.7964747628992511,0.7681399656126796
1756899355.5804985,-0.7964747628992511,0.7965720193181257
1756899355.5842366,-0.7964747628992511,0.8054570361010777
1756899355.584453,-0.7964747628992511,0.7894640058917641
1756899355.5862691,-1.2388456804223384,0.7894640058917641
1756899355.5866215,-1.2388456804223384,0.7770249823956314
1756899355.58836,-1.2388456804223384,0.7859099991785834
1756899355.5904057,-1.2388456804223384,0.8019030293878968
1756899355.5923488,-1.2388456804223384,0.7965720193181257
1756899355.594779,-1.2388456804223384,0.7681399656126796
1756899355.596399,-1.2388456804223384,0.737930908550643
1756899355.600031,-1.2388456804223384,0.7308228951242814
1756899355.628639,-1.2388456804223384,0.7432619186204141
1756899355.631034,-1.2388456804223384,0.7539239387599564
1756899355.634169,-1.4185363141307377,0.7539239387599564
1756899355.6373107,-1.4185363141307377,0.7574779454731373
1756899355.638311,-1.4185363141307377,0.7645859588994988
1756899355.6385388,-1.4185363141307377,0.7770249823956314
1756899355.638781,-1.4185363141307377,0.7823559924654027
1756899355.639054,-1.4185363141307377,0.7681399656126796
1756899355.6393116,-1.4185363141307377,0.7503699320467757
1756899355.6397774,-1.4185363141307377,0.7539239387599564
1756899355.6401055,-1.4185363141307377,0.7805789891088123
1756899355.6403997,-1.4185363141307377,0.7876870025351738
1756899355.6406002,-1.4185363141307377,0.7432619186204141
1756899355.6407957,-1.4185363141307377,0.6704047810002084
1756899355.6409988,-1.4185363141307377,0.6242026937288584
1756899355.641405,-1.4185363141307377,0.6348647138684007
1756899355.6416028,-1.4185363141307377,0.6704047810002084
1756899355.6418056,-1.4185363141307377,0.6828438044963411
1756899355.642336,-1.4185363141307377,0.6632967675738469
1756899355.6425805,-1.4185363141307377,0.6437497306513527
1756899355.6428344,-1.4185363141307377,0.6526347474343046
1756899355.6430316,-1.4185363141307377,0.6721817843567988
1756899355.6432884,-1.4185363141307377,0.6757357910699796
1756899355.64434,-1.4185363141307377,0.668627777643618
1756899355.64596,-1.4185363141307377,0.6792897977831603
1756899355.6488593,-1.4185363141307377,0.7077218514886064
1756899355.6492803,-1.4185363141307377,0.7219378783413296
1756899355.651233,-1.4185363141307377,0.6899518179227027
1756899355.6582904,-1.4185363141307377,0.6419727272947623
1756899355.6584313,-1.4185363141307377,0.6348647138684007
1756899355.658508,-1.4185363141307377,0.6935058246358834
1756899355.6591687,-1.4185363141307377,0.7663629622560891
1756899355.6611562,-1.4185363141307377,0.784132995821993
1756899355.6644657,-1.4185363141307377,0.737930908550643
1756899355.664813,-1.4185363141307377,0.6863978112095219
1756899355.666932,-1.4185363141307377,0.6863978112095219
1756899355.669053,-1.4185363141307377,0.7325998984808719
1756899355.670875,-1.4185363141307377,0.7752479790390411
1756899355.6729612,-1.4185363141307377,0.7823559924654027
1756899355.6757972,-1.4185363141307377,0.7681399656126796
1756899355.6769252,-1.4185363141307377,0.7539239387599564
1756899355.678908,-1.4185363141307377,0.7414849152638238
1756899355.680862,-1.4185363141307377,0.7254918850545103
1756899355.6828794,-1.4185363141307377,0.7077218514886064
1756899355.684712,-1.4185363141307377,0.6988368347056546
1756899355.6865754,-1.4185363141307377,0.700613838062245
1756899355.6868105,-1.2034848729857457,0.700613838062245
1756899355.6885514,-1.2034848729857457,0.6970598313490642
1756899355.6919403,-1.2034848729857457,0.6863978112095219
1756899355.6925013,-1.2034848729857457,0.6863978112095219
1756899355.694481,-1.2034848729857457,0.7130528615583777
1756899355.6963484,-1.2034848729857457,0.7503699320467757
1756899355.6982915,-1.2034848729857457,0.7734709756824507
1756899355.7003202,-1.2034848729857457,0.7770249823956314
1756899355.7027164,-1.2034848729857457,0.784132995821993
1756899355.7047842,-1.2034848729857457,0.8054570361010777
1756899355.7066212,-1.2034848729857457,0.8178960595972103
1756899355.7083251,-1.2034848729857457,0.793018012604945
1756899355.7101011,-1.2034848729857457,0.737930908550643
1756899355.712026,-1.2034848729857457,0.6863978112095219
1756899355.714141,-1.2034848729857457,0.6632967675738469
1756899355.7160168,-1.2034848729857457,0.6561887541474853
1756899355.7180085,-1.2034848729857457,0.6366417172249911
1756899355.7256238,-1.2034848729857457,0.6064326601629546
1756899355.7267313,-1.2034848729857457,0.5957706400234123
1756899355.727057,-1.2034848729857457,0.6188716836590873
1756899355.7272592,-1.2034848729857457,0.6579657575040757
1756899355.7278292,-1.2034848729857457,0.6828438044963411
1756899355.7303815,-1.2034848729857457,0.6846208078529316
1756899355.7318575,-1.2034848729857457,0.6846208078529316
1756899355.733956,-1.2034848729857457,0.700613838062245
1756899355.7342856,-0.7517325167549911,0.700613838062245
1756899355.735748,-0.7517325167549911,0.7183838716281488
1756899355.7377253,-0.7517325167549911,0.7183838716281488
1756899355.739643,-0.7517325167549911,0.6988368347056546
1756899355.7415593,-0.7517325167549911,0.6863978112095219
1756899355.7435615,-0.7517325167549911,0.6988368347056546
1756899355.7455325,-0.7517325167549911,0.7183838716281488
1756899355.7475443,-0.7517325167549911,0.7077218514886064
1756899355.749621,-0.7517325167549911,0.6632967675738469
1756899355.7519968,-0.7517325167549911,0.6242026937288584
1756899355.7534547,-0.7517325167549911,0.6295337037986296
1756899355.755639,-0.7517325167549911,0.6668507742870277
1756899355.7582223,-0.7517325167549911,0.6881748145661123
1756899355.7593668,-0.7517325167549911,0.6668507742870277
1756899355.761483,-0.7517325167549911,0.6348647138684007
1756899355.7632518,-0.7517325167549911,0.645526734007943
1756899355.7653775,-0.7517325167549911,0.691728821279293
1756899355.7671626,-0.7517325167549911,0.7219378783413296
1756899355.7694747,-0.7517325167549911,0.7041678447754257
1756899355.7712848,-0.7517325167549911,0.668627777643618
1756899355.7734437,-0.7517325167549911,0.6704047810002084
1756899355.7790036,-0.7517325167549911,0.7183838716281488
1756899355.7841425,-0.7517325167549911,0.7574779454731373
1756899355.7843714,-0.7517325167549911,0.7539239387599564
1756899355.784575,-0.7517325167549911,0.7361539051940527
1756899355.7847726,-0.7517325167549911,0.7539239387599564
1756899355.7889674,-0.7517325167549911,0.8001260260313064
1756899355.7894042,-0.7517325167549911,0.8196730629538007
1756899355.789653,-0.0004957710102376275,0.8196730629538007
1756899355.7896726,-0.0004957710102376275,0.7734709756824507
1756899355.7908132,-0.0004957710102376275,0.700613838062245
1756899355.7933822,-0.0004957710102376275,0.668627777643618
1756899355.7948277,-0.0004957710102376275,0.6881748145661123
1756899355.7967746,-0.0004957710102376275,0.7041678447754257
1756899355.7986224,-0.0004957710102376275,0.668627777643618
1756899355.8058865,-0.0004957710102376275,0.6064326601629546
1756899355.8065112,-0.0004957710102376275,0.58510861988387
1756899355.8067698,-0.0004957710102376275,0.6259796970854489
1756899355.8069763,-0.0004957710102376275,0.6757357910699796
1756899355.8086648,-0.0004957710102376275,0.6792897977831603
1756899355.8104403,-0.0004957710102376275,0.6366417172249911
1756899355.8129673,-0.0004957710102376275,0.599324646736593
1756899355.8146608,-0.0004957710102376275,0.599324646736593
1756899355.8163557,-0.0004957710102376275,0.6206486870156777
1756899355.818434,-0.0004957710102376275,0.622425690372268
1756899355.821387,-0.0004957710102376275,0.6011016500931834
1756899355.82246,-0.0004957710102376275,0.5815546131706892
1756899355.82434,-0.0004957710102376275,0.576223603100918
1756899355.826384,-0.0004957710102376275,0.5691155896745566
1756899355.8282452,-0.0004957710102376275,0.5406835359691103
1756899355.830394,-0.0004957710102376275,0.5015894621241219
1756899355.832177,-0.0004957710102376275,0.4749344117752662
1756899355.834329,-0.0004957710102376275,0.4749344117752662
1756899355.8350148,0.9066171871080669,0.4749344117752662
1756899355.836112,0.9066171871080669,0.48737343527139887
1756899355.8379562,0.9066171871080669,0.47315740841867576
1756899355.8399234,0.9066171871080669,0.4180703043643738
1756899355.841885,0.9066171871080669,0.3381051533178065
1756899355.8440096,0.9066171871080669,0.28124104590691423
1756899355.8458705,0.9066171871080669,0.28124104590691423
1756899355.847962,0.9066171871080669,0.3292201365348546
1756899355.8567977,0.9066171871080669,0.3736452204496142
1756899355.8572867,0.9066171871080669,0.3718682170930238
1756899355.8577535,0.9066171871080669,0.3327741432480354
1756899355.8587236,0.9066171871080669,0.3132271063255411
1756899355.8591733,0.9066171871080669,0.34699017010075844
1756899355.860459,0.9066171871080669,0.4109622909380123
1756899355.8615222,0.9066171871080669,0.4553873748527719
1756899355.8635292,0.9066171871080669,0.4553873748527719
1756899355.8654845,0.9066171871080669,0.43584033793027765
1756899355.8674188,0.9066171871080669,0.4305093278605065
1756899355.869556,0.9066171871080669,0.437617341286868
1756899355.8713377,0.9066171871080669,0.4340633345736873
1756899355.8735034,0.9066171871080669,0.41273929429460265
1756899355.8752396,0.9066171871080669,0.40030027079846997
1756899355.878565,0.9066171871080669,0.414516297651193
1756899355.8793032,0.9066171871080669,0.4411713480000488
1756899355.8814127,0.9066171871080669,0.45183336813959113
1756899355.884,0.9066171871080669,0.4429483513566392
1756899355.8854632,0.9066171871080669,0.43939434464345845
1756899355.8865173,1.4377509477883152,0.43939434464345845
1756899355.88773,1.4377509477883152,0.4678263983489046
1756899355.889855,1.4377509477883152,0.5229135024032066
1756899355.8910236,1.4377509477883152,0.5780006064575084
1756899355.89451,1.4377509477883152,0.6153176769459066
1756899355.89495,1.4377509477883152,0.6384187205815816
1756899355.8969293,1.4377509477883152,0.6473037373645334
1756899355.9223976,1.4377509477883152,0.6384187205815816
1756899355.9226584,1.4377509477883152,0.6135406735893161
1756899355.9228563,1.4377509477883152,0.58510861988387
1756899355.9230533,1.4377509477883152,0.5780006064575084
1756899355.9232483,1.4377509477883152,0.5886626265970507
1756899355.9234452,1.4377509477883152,0.5957706400234123
1756899355.9236395,1.4377509477883152,0.5744465997443277
1756899355.923838,1.4377509477883152,0.5317985191861585
1756899355.9240315,1.4377509477883152,0.5033664654807123
1756899355.924254,1.4377509477883152,0.5193594956900258
1756899355.9244514,1.4377509477883152,0.576223603100918
1756899355.9246466,1.4377509477883152,0.6330877105118103
1756899355.924842,1.4377509477883152,0.654411750790895
1756899355.925038,1.4377509477883152,0.6490807407211239
1756899355.9286492,1.4377509477883152,0.6490807407211239
1756899355.9290023,1.4377509477883152,0.6739587877133892
1756899355.930363,1.4377509477883152,0.7077218514886064
1756899355.9336023,1.4377509477883152,0.7166068682715584
1756899355.9347775,1.7076477229165938,0.7166068682715584
1756899355.9367864,1.7076477229165938,0.6935058246358834
1756899355.937255,1.7076477229165938,0.668627777643618
1756899355.9381957,1.7076477229165938,0.6739587877133892
1756899355.940169,1.7076477229165938,0.6952828279924738
1756899355.942159,1.7076477229165938,0.6988368347056546
1756899355.9441023,1.7076477229165938,0.6650737709304373
1756899355.9460597,1.7076477229165938,0.6295337037986296
1756899355.9517052,1.7076477229165938,0.6330877105118103
1756899355.9519951,1.7076477229165938,0.6757357910699796
1756899355.952256,1.7076477229165938,0.7112758582017873
1756899355.9538932,1.7076477229165938,0.6952828279924738
1756899355.957787,1.7076477229165938,0.63131070715522
1756899355.958356,1.7076477229165938,0.5708925930311469
1756899355.9598904,1.7076477229165938,0.5637845796047853
1756899355.962589,1.7076477229165938,0.6064326601629546
1756899355.9667647,1.7076477229165938,0.6508577440777142
1756899355.9669929,1.7076477229165938,0.6615197642172566
1756899355.9680684,1.7076477229165938,0.63131070715522
1756899355.9710767,1.7076477229165938,0.5957706400234123
1756899355.9715726,1.7076477229165938,0.5904396299536412
1756899355.9736226,1.7076477229165938,0.622425690372268
1756899355.9755409,1.7076477229165938,0.6632967675738469
1756899355.9774563,1.7076477229165938,0.668627777643618
1756899355.9802296,1.7076477229165938,0.622425690372268
1756899355.9814022,1.7076477229165938,0.5442375426822912
1756899355.9834504,1.7076477229165938,0.4802654218450373
1756899355.9853735,1.7076477229165938,0.46249538827913345
1756899355.9873943,1.7076477229165938,0.4802654218450373
1756899355.9893613,1.7076477229165938,0.48915043862798924
1756899355.990005,1.7379569864336732,0.48915043862798924
1756899355.99341,1.7379569864336732,0.4589413815659527
1756899355.9936366,1.7379569864336732,0.40207727415506034
1756899355.9957125,1.7379569864336732,0.35054417681393923
1756899355.9972548,1.7379569864336732,0.3185581163953123
1756899355.999127,1.7379569864336732,0.2741330324805527
1756899356.0061908,1.7379569864336732,0.18350586129444313
1756899356.0064254,1.7379569864336732,0.04489959948039314
1756899356.006623,1.7379569864336732,-0.11147669589956066
1756899356.0070083,1.7379569864336732,-0.260744977853153
1756899356.009578,1.7379569864336732,-0.40645925309356445
1756899356.0109808,1.7379569864336732,-0.5521735283339759
1756899356.013031,1.7379569864336732,-0.6623477364425797
1756899356.0150206,1.7379569864336732,-0.6872257834348452
1756899356.016859,1.7379569864336732,-0.6090376357448682
1756899356.0187268,1.7379569864336732,-0.4633233605044567
1756899356.0207486,1.7379569864336732,-0.29628504498496067
1756899356.025263,1.7379569864336732,-0.11147669589956066
1756899356.025538,1.7379569864336732,0.12308774717037005
1756899356.0267384,1.7379569864336732,0.40030027079846997
1756899356.0286255,1.7379569864336732,0.6526347474343046
1756899356.0312607,1.7379569864336732,0.8196730629538007
1756899356.0328646,1.7379569864336732,0.899638214000368
1756899356.0345235,1.7379569864336732,0.9493943079848987
1756899356.034674,1.5698127388270184,0.9493943079848987
1756899356.036587,1.5698127388270184,1.006258415395791
1756899356.0384617,1.5698127388270184,1.043575485884189
1756899356.040388,1.5698127388270184,1.0186974388919237
1756899356.042482,1.5698127388270184,0.9422862945585371
1756899356.0443869,1.5698127388270184,0.8676521535817411
1756899356.0463417,1.5698127388270184,0.8356660931631141
1756899356.0513718,1.5698127388270184,0.830335083093343
1756899356.0516338,1.5698127388270184,0.8178960595972103
1756899356.0521874,1.5698127388270184,0.7912410092483546
1756899356.0542228,1.5698127388270184,0.7716939723258603
1756899356.0561938,1.5698127388270184,0.7663629622560891
1756899356.061049,1.5698127388270184,0.7521469354033661
1756899356.0616302,1.5698127388270184,0.7130528615583777
1756899356.0620575,1.5698127388270184,0.6757357910699796
1756899356.0645406,1.5698127388270184,0.6810668011397507
1756899356.0660398,1.5698127388270184,0.7272688884111007
1756899356.067946,1.5698127388270184,0.7663629622560891
1756899356.0699208,1.5698127388270184,0.7539239387599564
1756899356.0718803,1.5698127388270184,0.7041678447754257
1756899356.0740962,1.5698127388270184,0.668627777643618
1756899356.0757787,1.5698127388270184,0.6792897977831603
1756899356.0777576,1.5698127388270184,0.7130528615583777
1756899356.0797713,1.5698127388270184,0.7272688884111007
1756899356.0817544,1.5698127388270184,0.6970598313490642
1756899356.0836997,1.5698127388270184,0.6401957239381719
1756899356.0856674,1.5698127388270184,0.5815546131706892
1756899356.0872307,1.3251736832963061,0.5815546131706892
1756899356.0875866,1.3251736832963061,0.5353525258993392
1756899356.089628,1.3251736832963061,0.5086974755504835
1756899356.0945296,1.3251736832963061,0.5051434688373027
1756899356.0947783,1.3251736832963061,0.506920472193893
1756899356.0954344,1.3251736832963061,0.4944814486977604
1756899356.0974462,1.3251736832963061,0.4607183849225431
1756899356.099489,1.3251736832963061,0.42695532114732576
1756899356.1012962,1.3251736832963061,0.42695532114732576
1756899356.104383,1.3251736832963061,0.4553873748527719
1756899356.1052363,1.3251736832963061,0.47671141513185655
1756899356.1072876,1.3251736832963061,0.46427239163572387
1756899356.1121,1.3251736832963061,0.43584033793027765
1756899356.1123548,1.3251736832963061,0.43228633121709686
1756899356.113126,1.3251736832963061,0.45716437820936234
1756899356.1151536,1.3251736832963061,0.4802654218450373
1756899356.11703,1.3251736832963061,0.4749344117752662
1756899356.1190913,1.3251736832963061,0.45716437820936234
1756899356.1210208,1.3251736832963061,0.45716437820936234
1756899356.1229784,1.3251736832963061,0.4749344117752662
1756899356.1249764,1.3251736832963061,0.4784884184884469
1756899356.126948,1.3251736832963061,0.45183336813959113
1756899356.129058,1.3251736832963061,0.42340131443414497
1756899356.1308465,1.3251736832963061,0.4216243110775546
1756899356.1331272,1.3251736832963061,0.4447253547132296
1756899356.1347277,0.7092461496813713,0.4447253547132296
1756899356.1355214,0.7092461496813713,0.4589413815659527
1756899356.13694,0.7092461496813713,0.44650235806981997
1756899356.1387787,0.7092461496813713,0.42517831779073534
1756899356.1407778,0.7092461496813713,0.4198473077209642
1756899356.1425688,0.7092461496813713,0.437617341286868
1756899356.1463804,0.7092461496813713,0.46249538827913345
1756899356.14649,0.7092461496813713,0.4713804050620854
1756899356.1490755,0.7092461496813713,0.45183336813959113
1756899356.1521568,0.7092461496813713,0.4091852875814219
1756899356.152524,0.7092461496813713,0.3612061969534815
1756899356.1543913,0.7092461496813713,0.3363281499612161
1756899356.1566854,0.7092461496813713,0.34343616338757765
1756899356.1584885,0.7092461496813713,0.36653720702325265
1756899356.160438,0.7092461496813713,0.3647602036666623
1756899356.1631062,0.7092461496813713,0.32033511975190265
1756899356.1641688,0.7092461496813713,0.26169400898442
1756899356.1663322,0.7092461496813713,0.23148495192238347
1756899356.1682053,0.7092461496813713,0.24570097877510655
1756899356.1700947,0.7092461496813713,0.2723560291239623
1756899356.171956,0.7092461496813713,0.2723560291239623
1756899356.1743052,0.7092461496813713,0.2403699687053354
1756899356.1782193,0.7092461496813713,0.19949889150375658
1756899356.1787624,0.7092461496813713,0.17106683779831042
1756899356.1799767,0.7092461496813713,0.14796579416263544
1756899356.1819792,0.7092461496813713,0.1284187572401412
1756899356.183974,0.7092461496813713,0.1177567371005989
1756899356.1859484,0.7092461496813713,0.12131074381377967
1756899356.1882682,0.7092461496813713,0.1301957605967316
1756899356.18986,0.7092461496813713,0.11953374045718929
1756899356.191816,0.7092461496813713,0.08754768003856236
1756899356.1941135,0.7092461496813713,0.0608926296897066
1756899356.1957517,0.7092461496813713,0.06622363975947776
1756899356.196624,0.5912565167041695,0.06622363975947776
1756899356.1977088,0.5912565167041695,0.09998670353469506
1756899356.2033746,0.5912565167041695,0.11420273038741813
1756899356.2228303,0.5912565167041695,0.08577067668197198
1756899356.223674,0.5912565167041695,0.03601458269744122
1756899356.224945,0.5912565167041695,0.009359532348585456
1756899356.225634,0.5912565167041695,0.02002155248812776
1756899356.225855,0.5912565167041695,0.04134559276721237
1756899356.2260528,0.5912565167041695,0.03956858941062199
1756899356.2289126,0.5912565167041695,0.02002155248812776
1756899356.229161,0.5912565167041695,0.009359532348585456
1756899356.2317832,0.5912565167041695,0.014690542418356607
1756899356.2320342,0.5912565167041695,0.02002155248812776
1756899356.232263,0.5912565167041695,0.018244549131537374
1756899356.2324605,0.5912565167041695,0.009359532348585456
1756899356.232658,0.5912565167041695,-0.0030794911475472346
1756899356.2328572,0.5912565167041695,-0.026180534783222232
1756899356.233055,0.5912565167041695,-0.05816659520184914
1756899356.2332518,0.5912565167041695,-0.0848216455507049
1756899356.2339518,0.5912565167041695,-0.08837565226388568
1756899356.235086,0.5912565167041695,-0.07949063548093376
1756899356.237206,0.5912565167041695,-0.0848216455507049
1756899356.2393796,0.03103127541601013,-0.0848216455507049
1756899356.2421048,0.03103127541601013,-0.10436868247319914
1756899356.2423356,0.03103127541601013,-0.11503070261274144
1756899356.2452312,0.03103127541601013,-0.10081467576001836
1756899356.2454617,0.03103127541601013,-0.09370666233365682
1756899356.246735,0.03103127541601013,-0.12213871603910298
1756899356.251125,0.03103127541601013,-0.18077982680658566
1756899356.2513902,0.03103127541601013,-0.22342790736475487
1756899356.2527173,0.03103127541601013,-0.22698191407793564
1756899356.254788,0.03103127541601013,-0.21454289058180295
1756899356.256731,0.03103127541601013,-0.22520491072134527
1756899356.2611854,0.03103127541601013,-0.2589679744965626
1756899356.2614326,0.03103127541601013,-0.28206901813223756
1756899356.2625284,0.03103127541601013,-0.27318400134928567
1756899356.264427,0.03103127541601013,-0.25008295771361067
1756899356.2665267,0.03103127541601013,-0.2447519476438395
1756899356.268411,0.03103127541601013,-0.2589679744965626
1756899356.2707696,0.03103127541601013,-0.2802920147756472
1756899356.2723408,0.03103127541601013,-0.29628504498496067
1756899356.2782395,0.03103127541601013,-0.31760908526404524
1756899356.279402,0.03103127541601013,-0.3495951456826722
1756899356.2796166,0.03103127541601013,-0.3815812061012991
1756899356.2802007,0.03103127541601013,-0.3922432262408414
1756899356.2822316,0.03103127541601013,-0.3833582094578895
1756899356.2842276,0.03103127541601013,-0.37447319267493756
1756899356.2862058,0.03103127541601013,-0.3833582094578895
1756899356.2872767,-0.40750588109673225,-0.3833582094578895
1756899356.288137,-0.40750588109673225,-0.40645925309356445
1756899356.29008,-0.40750588109673225,-0.4260062900160587
1756899356.292018,-0.40750588109673225,-0.4242292866594683
1756899356.294034,-0.40750588109673225,-0.39757423631061256
1756899356.3019123,-0.40750588109673225,-0.3620341691788049
1756899356.3029385,-0.40750588109673225,-0.3460411389694914
1756899356.3031416,-0.40750588109673225,-0.3584801624656241
1756899356.303337,-0.40750588109673225,-0.3798042027447087
1756899356.304989,-0.40750588109673225,-0.3815812061012991
1756899356.311236,-0.40750588109673225,-0.3531491523958529
1756899356.3258946,-0.40750588109673225,-0.31227807519427414
1756899356.3268251,-0.40750588109673225,-0.2927310382717799
1756899356.3270314,-0.40750588109673225,-0.2945080416283703
1756899356.327729,-0.40750588109673225,-0.29628504498496067
1756899356.3279283,-0.40750588109673225,-0.27496100470587603
1756899356.32862,-0.40750588109673225,-0.22875891743452606
1756899356.3288472,-0.40750588109673225,-0.17900282344999527
1756899356.329733,-0.40750588109673225,-0.14879376638795874
1756899356.3311164,-0.40750588109673225,-0.13813174624841643
1756899356.3313255,-0.40750588109673225,-0.13457773953523566
1756899356.3317573,-0.40750588109673225,-0.11680770596933182
1756899356.3319566,-0.40750588109673225,-0.07771363212434337
1756899356.3321872,-0.40750588109673225,-0.03151154485299339
1756899356.3347871,-0.40750588109673225,-0.006633497860728003
1756899356.3350482,-0.9761653966076503,-0.006633497860728003
1756899356.335577,-0.9761653966076503,-0.01729551800027031
1756899356.337356,-0.9761653966076503,-0.04572757170571646
1756899356.339217,-0.9761653966076503,-0.04750457506230684
1756899356.3412445,-0.9761653966076503,-0.004856494504137619
1756899356.3432596,-0.9761653966076503,0.05733862297652584
1756899356.346245,-0.9761653966076503,0.09643269682151429
1756899356.3471396,-0.9761653966076503,0.10354071024787583
1756899356.3634276,-0.9761653966076503,0.10887172031764698
1756899356.3680708,-0.9761653966076503,0.13730377402309313
1756899356.368316,-0.9761653966076503,0.1728438411549008
1756899356.3685164,-0.9761653966076503,0.1852828646510335
1756899356.3687112,-0.9761653966076503,0.1728438411549008
1756899356.3689313,-0.9761653966076503,0.16928983444172005
1756899356.369417,-0.9761653966076503,0.19772188814716618
1756899356.3696196,-0.9761653966076503,0.23326195527897384
1756899356.369815,-0.9761653966076503,0.23326195527897384
1756899356.370011,-0.9761653966076503,0.18883687136421426
1756899356.3702073,-0.9761653966076503,0.15329680423240657
1756899356.3712542,-0.9761653966076503,0.17639784786808158
1756899356.3726504,-0.9761653966076503,0.24747798213169692
1756899356.374596,-0.9761653966076503,0.3061190928991796
1756899356.3765378,-0.9761653966076503,0.30789609625576997
1756899356.3785017,-0.9761653966076503,0.2670250190541911
1756899356.380534,-0.9761653966076503,0.23148495192238347
1756899356.3824437,-0.9761653966076503,0.238592965348745
1756899356.3844306,-0.9761653966076503,0.27768703919373344
1756899356.3864205,-0.9761653966076503,0.3167811130387219
1756899356.3890831,-0.9761653966076503,0.33099713989144497
1756899356.390483,-1.2475054699986468,0.33099713989144497
1756899356.3940089,-1.2475054699986468,0.3132271063255411
1756899356.3942358,-1.2475054699986468,0.28479505262009497
1756899356.394433,-1.2475054699986468,0.2723560291239623
1756899356.396146,-1.2475054699986468,0.2954570727596373
1756899356.3983169,-1.2475054699986468,0.3327741432480354
1756899356.4006302,-1.2475054699986468,0.3523211801705296
1756899356.4077888,-1.2475054699986468,0.33099713989144497
1756899356.408026,-1.2475054699986468,0.2972340761162277
1756899356.408235,-1.2475054699986468,0.2865720559766854
1756899356.4084313,-1.2475054699986468,0.30789609625576997
1756899356.4104154,-1.2475054699986468,0.32388912646508344
1756899356.4119072,-1.2475054699986468,0.3096730996123604
1756899356.414349,-1.2475054699986468,0.29190306604645655
1756899356.4160209,-1.2475054699986468,0.30789609625576997
1756899356.4178932,-1.2475054699986468,0.3612061969534815
1756899356.4198282,-1.2475054699986468,0.40563128086824113
1756899356.421816,-1.2475054699986468,0.39319225737210844
1756899356.42382,-1.2475054699986468,0.3398821566743969
1756899356.4256022,-1.2475054699986468,0.31145010296895076
1756899356.4279578,-1.2475054699986468,0.3416591600309873
1756899356.429618,-1.2475054699986468,0.40563128086824113
1756899356.4320903,-1.2475054699986468,0.4447253547132296
1756899356.4343388,-1.2475054699986468,0.4411713480000488
1756899356.434976,-1.4098765245544291,0.4411713480000488
1756899356.4358475,-1.4098765245544291,0.4216243110775546
1756899356.4375055,-1.4098765245544291,0.42340131443414497
1756899356.4395084,-1.4098765245544291,0.44827936142641034
1756899356.4416332,-1.4098765245544291,0.4678263983489046
1756899356.4515786,-1.4098765245544291,0.4607183849225431
1756899356.4521086,-1.4098765245544291,0.43584033793027765
1756899356.4543958,-1.4098765245544291,0.414516297651193
1756899356.4546783,-1.4098765245544291,0.40385427751165076
1756899356.4549298,-1.4098765245544291,0.40030027079846997
1756899356.4551506,-1.4098765245544291,0.3949692607286988
1756899356.4553504,-1.4098765245544291,0.39319225737210844
1756899356.4573646,-1.4098765245544291,0.3967462640852892
1756899356.4618168,-1.4098765245544291,0.4091852875814219
1756899356.462365,-1.4098765245544291,0.42873232450391613
1756899356.4636316,-1.4098765245544291,0.46249538827913345
1756899356.4649546,-1.4098765245544291,0.5033664654807123
1756899356.4669003,-1.4098765245544291,0.5335755225427489
1756899356.4689326,-1.4098765245544291,0.5335755225427489
1756899356.47094,-1.4098765245544291,0.5051434688373027
1756899356.4729578,-1.4098765245544291,0.4678263983489046
1756899356.4749277,-1.4098765245544291,0.4500563647830007
1756899356.4767926,-1.4098765245544291,0.4500563647830007
1756899356.478723,-1.4098765245544291,0.4589413815659527
1756899356.480719,-1.4098765245544291,0.469603401705495
1756899356.4827766,-1.4098765245544291,0.48737343527139887
1756899356.4846165,-1.4098765245544291,0.5140284856202546
1756899356.4866047,-1.5772991230297246,0.5140284856202546
1756899356.4867167,-1.5772991230297246,0.5353525258993392
1756899356.5083325,-1.5772991230297246,0.53890653261252
1756899356.513759,-1.5772991230297246,0.5317985191861585
1756899356.5146136,-1.5772991230297246,0.5406835359691103
1756899356.516973,-1.5772991230297246,0.576223603100918
1756899356.5172546,-1.5772991230297246,0.6117636702327257
1756899356.517537,-1.5772991230297246,0.6099866668761353
1756899356.518083,-1.5772991230297246,0.5726695963877373
1756899356.519829,-1.5772991230297246,0.5442375426822912
1756899356.5200353,-1.5772991230297246,0.5655615829613757
1756899356.5202315,-1.5772991230297246,0.6330877105118103
1756899356.5204358,-1.5772991230297246,0.700613838062245
1756899356.521187,-1.5772991230297246,0.7290458917676911
1756899356.5214753,-1.5772991230297246,0.7166068682715584
1756899356.521676,-1.5772991230297246,0.6970598313490642
1756899356.5218997,-1.5772991230297246,0.7041678447754257
1756899356.5245256,-1.5772991230297246,0.7361539051940527
1756899356.5253706,-1.5772991230297246,0.7716939723258603
1756899356.5260732,-1.5772991230297246,0.7912410092483546
1756899356.526411,-1.5772991230297246,0.7859099991785834
1756899356.5266085,-1.5772991230297246,0.7592549488297277
1756899356.5278797,-1.5772991230297246,0.7325998984808719
1756899356.5298655,-1.5772991230297246,0.72371488169792
1756899356.531788,-1.5772991230297246,0.7397079119072334
1756899356.5341763,-1.5772991230297246,0.761031952186318
1756899356.535964,-1.2576085578376732,0.761031952186318
1756899356.536892,-1.2576085578376732,0.7574779454731373
1756899356.5382318,-1.2576085578376732,0.7254918850545103
1756899356.5398283,-1.2576085578376732,0.700613838062245
1756899356.5415635,-1.2576085578376732,0.714829864914968
1756899356.5516746,-1.2576085578376732,0.7628089555429084
1756899356.5546978,-1.2576085578376732,0.7965720193181257
1756899356.554936,-1.2576085578376732,0.7788019857522218
1756899356.555286,-1.2576085578376732,0.7397079119072334
1756899356.5555282,-1.2576085578376732,0.7290458917676911
1756899356.5557275,-1.2576085578376732,0.7681399656126796
1756899356.555935,-1.2576085578376732,0.8178960595972103
1756899356.5596137,-1.2576085578376732,0.8338890898065238
1756899356.5599267,-1.2576085578376732,0.8178960595972103
1756899356.5614543,-1.2576085578376732,0.807234039457668
1756899356.5632873,-1.2576085578376732,0.8214500663103911
1756899356.5655158,-1.2576085578376732,0.8374430965197045
1756899356.5722277,-1.2576085578376732,0.8250040730235718
1756899356.5738852,-1.2576085578376732,0.8054570361010777
1756899356.574335,-1.2576085578376732,0.8125650495274391
1756899356.5745351,-1.2576085578376732,0.8481051166592468
1756899356.5753376,-1.2576085578376732,0.8729831636515122
1756899356.5773284,-1.2576085578376732,0.8516591233724277
1756899356.5789895,-1.2576085578376732,0.8090110428142584
1756899356.5809205,-1.2576085578376732,0.7947950159615353
1756899356.5833538,-1.2576085578376732,0.8143420528840295
1756899356.5848467,-1.2576085578376732,0.830335083093343
1756899356.586658,-1.6422475448520377,0.830335083093343
1756899356.5868835,-1.6422475448520377,0.8036800327444873
1756899356.5888486,-1.6422475448520377,0.7574779454731373
1756899356.5907936,-1.6422475448520377,0.7521469354033661
1756899356.5927577,-1.6422475448520377,0.8107880461708488
1756899356.6223378,-1.6422475448520377,0.8871991905042353
1756899356.627427,-1.6422475448520377,0.9245162609926333
1756899356.6281426,-1.6422475448520377,0.9067462274267295
1756899356.6284232,-1.6422475448520377,0.8676521535817411
1756899356.6286976,-1.6422475448520377,0.8445511099460661
1756899356.6290054,-1.6422475448520377,0.8498821200158372
1756899356.6304135,-1.6422475448520377,0.8640981468685603
1756899356.6306465,-1.6422475448520377,0.8694291569383314
1756899356.6308756,-1.6422475448520377,0.8605441401553795
1756899356.6310964,-1.6422475448520377,0.8321120864499334
1756899356.6320546,-1.6422475448520377,0.7965720193181257
1756899356.6323252,-1.6422475448520377,0.7788019857522218
1756899356.6333642,-1.6422475448520377,0.8036800327444873
1756899356.633597,-1.6422475448520377,0.8676521535817411
1756899356.6342072,-1.6422475448520377,0.9209622542794526
1756899356.63457,-1.6422475448520377,0.9191852509228621
1756899356.6347942,-1.6422475448520377,0.8676521535817411
1756899356.6350248,-1.6422475448520377,0.8196730629538007
1756899356.6352434,-1.6422475448520377,0.8214500663103911
1756899356.6354992,-1.6422475448520377,0.8658751502251507
1756899356.6357486,-1.6422475448520377,0.899638214000368
1756899356.635983,-1.6422475448520377,0.8925302005740064
1756899356.6372025,-1.4459589811223807,0.8925302005740064
1756899356.637953,-1.4459589811223807,0.86232114351197
1756899356.6402516,-1.4459589811223807,0.8498821200158372
1756899356.6547902,-1.4459589811223807,0.8694291569383314
1756899356.6551442,-1.4459589811223807,0.8978612106437777
1756899356.6554885,-1.4459589811223807,0.9103002341399102
1756899356.6556995,-1.4459589811223807,0.9067462274267295
1756899356.6558957,-1.4459589811223807,0.9049692240701391
1756899356.6561017,-1.4459589811223807,0.9120772374965006
1756899356.6562967,-1.4459589811223807,0.9103002341399102
1756899356.656505,-1.4459589811223807,0.8871991905042353
1756899356.6583445,-1.4459589811223807,0.8658751502251507
1756899356.661421,-1.4459589811223807,0.8694291569383314
1756899356.661787,-1.4459589811223807,0.9049692240701391
1756899356.6636794,-1.4459589811223807,0.9387322878453563
1756899356.665553,-1.4459589811223807,0.9405092912019467
1756899356.6685362,-1.4459589811223807,0.9103002341399102
1756899356.6694465,-1.4459589811223807,0.8800911770778738
1756899356.671496,-1.4459589811223807,0.8783141737212834
1756899356.6733737,-1.4459589811223807,0.8960842072871872
1756899356.6753497,-1.4459589811223807,0.9085232307833199
1756899356.6773207,-1.4459589811223807,0.899638214000368
1756899356.6792555,-1.4459589811223807,0.8818681804344641
1756899356.681209,-1.4459589811223807,0.8694291569383314
1756899356.6832082,-1.4459589811223807,0.8694291569383314
1756899356.6851385,-1.4459589811223807,0.876537170364693
1756899356.6865587,0.28446542973516054,0.876537170364693
1756899356.6871076,0.28446542973516054,0.8871991905042353
1756899356.689053,0.28446542973516054,0.9031922207135488
1756899356.6927426,0.28446542973516054,0.9156312442096813
1756899356.6930945,0.28446542973516054,0.9120772374965006
1756899356.6949625,0.28446542973516054,0.8747601670081027
1756899356.700773,0.28446542973516054,0.8196730629538007
1756899356.7023313,0.28446542973516054,0.7752479790390411
1756899356.7255402,0.28446542973516054,0.7645859588994988
1756899356.736025,0.28446542973516054,0.784132995821993
1756899356.7379692,1.7581631621117262,0.784132995821993
1756899356.7380736,1.7581631621117262,0.8143420528840295
1756899356.7393754,1.7581631621117262,0.8356660931631141
1756899356.7397797,1.7581631621117262,0.8427741065894757
1756899356.7416627,1.7581631621117262,0.8409971032328853
1756899356.7420115,1.7581631621117262,0.8356660931631141
1756899356.7424865,1.7581631621117262,0.8498821200158372
1756899356.7426922,1.7581631621117262,0.8925302005740064
1756899356.7428896,1.7581631621117262,0.9422862945585371
1756899356.743764,1.7581631621117262,0.9618333314810313
1756899356.744052,1.7581631621117262,0.9351782811321756
1756899356.744316,1.7581631621117262,0.8960842072871872
1756899356.7445834,1.7581631621117262,0.8943072039305968
1756899356.745643,1.7581631621117262,0.9298472710624044
1756899356.745846,1.7581631621117262,0.9493943079848987
1756899356.7464075,1.7581631621117262,0.9191852509228621
1756899356.7469175,1.7581631621117262,0.8640981468685603
1756899356.74728,1.7581631621117262,0.8374430965197045
1756899356.747483,1.7581631621117262,0.8463281133026564
1756899356.7477827,1.7581631621117262,0.8516591233724277
1756899356.750059,1.7581631621117262,0.8214500663103911
1756899356.7541716,1.7581631621117262,0.7859099991785834
1756899356.754504,1.7581631621117262,0.7805789891088123
1756899356.754715,1.7581631621117262,0.793018012604945
1756899356.754914,1.7581631621117262,0.7805789891088123
1756899356.755111,1.7581631621117262,0.7397079119072334
1756899356.755307,1.7581631621117262,0.7166068682715584
1756899356.755979,1.7581631621117262,0.737930908550643
1756899356.7578862,1.7581631621117262,0.7592549488297277
1756899356.7603576,1.7581631621117262,0.7254918850545103
1756899356.7628882,1.7581631621117262,0.6437497306513527
1756899356.763835,1.7581631621117262,0.5922166333102316
1756899356.7658043,1.7581631621117262,0.6153176769459066
1756899356.7677689,1.7581631621117262,0.6650737709304373
1756899356.772355,1.7581631621117262,0.6615197642172566
1756899356.772593,1.7581631621117262,0.5886626265970507
1756899356.7736106,1.7581631621117262,0.5229135024032066
1756899356.7756145,1.7581631621117262,0.5282445124729777
1756899356.777532,1.7581631621117262,0.5957706400234123
1756899356.779544,1.7581631621117262,0.6508577440777142
1756899356.7851603,1.7581631621117262,0.645526734007943
1756899356.7877169,1.9631115154176915,0.645526734007943
1756899356.7904904,1.9631115154176915,0.599324646736593
1756899356.790702,1.9631115154176915,0.5691155896745566
1756899356.7909012,1.9631115154176915,0.5797776098140989
1756899356.791098,1.9631115154176915,0.6064326601629546
1756899356.7952795,1.9631115154176915,0.6099866668761353
1756899356.795537,1.9631115154176915,0.5797776098140989
1756899356.79574,1.9631115154176915,0.5442375426822912
1756899356.797193,1.9631115154176915,0.5371295292559296
1756899356.799187,1.9631115154176915,0.5584535695350142
1756899356.8040242,1.9631115154176915,0.5833316165272796
1756899356.8078427,1.9631115154176915,0.5815546131706892
1756899356.8080857,1.9631115154176915,0.5584535695350142
1756899356.808287,1.9631115154176915,0.5406835359691103
1756899356.8089397,1.9631115154176915,0.5442375426822912
1756899356.812309,1.9631115154176915,0.5584535695350142
1756899356.8128414,1.9631115154176915,0.562007576248195
1756899356.8149724,1.9631115154176915,0.553122559465243
1756899356.8167825,1.9631115154176915,0.5495685527520623
1756899356.8187182,1.9631115154176915,0.5655615829613757
1756899356.8208113,1.9631115154176915,0.5939936366668219
1756899356.8227775,1.9631115154176915,0.6135406735893161
1756899356.824652,1.9631115154176915,0.6242026937288584
1756899356.8266528,1.9631115154176915,0.6401957239381719
1756899356.8287272,1.9631115154176915,0.6721817843567988
1756899356.8310523,1.9631115154176915,0.7112758582017873
1756899356.8326216,1.9631115154176915,0.7361539051940527
1756899356.8345358,1.9631115154176915,0.7414849152638238
1756899356.8371954,1.9631115154176915,0.737930908550643
1756899356.8421712,0.7604832380078628,0.737930908550643
1756899356.8462658,0.7604832380078628,0.7361539051940527
1756899356.8465157,0.7604832380078628,0.7325998984808719
1756899356.8467956,0.7604832380078628,0.7201608749847392
1756899356.8470025,0.7604832380078628,0.6970598313490642
1756899356.8471975,0.7604832380078628,0.6846208078529316
1756899356.8483016,0.7604832380078628,0.6952828279924738
1756899356.8548872,0.7604832380078628,0.7166068682715584
1756899356.855301,0.7604832380078628,0.7272688884111007
1756899356.856031,0.7604832380078628,0.7219378783413296
1756899356.8562574,0.7604832380078628,0.7201608749847392
1756899356.8581443,0.7604832380078628,0.7414849152638238
1756899356.8601525,0.7604832380078628,0.7716939723258603
1756899356.863103,0.7604832380078628,0.784132995821993
1756899356.8640487,0.7604832380078628,0.7734709756824507
1756899356.8664415,0.7604832380078628,0.7557009421165469
1756899356.8678973,0.7604832380078628,0.7521469354033661
1756899356.8699422,0.7604832380078628,0.761031952186318
1756899356.875098,0.7604832380078628,0.761031952186318
1756899356.8759117,0.7604832380078628,0.7503699320467757
1756899356.8761537,0.7604832380078628,0.7450389219770046
1756899356.877887,0.7604832380078628,0.761031952186318
1756899356.8799434,0.7604832380078628,0.784132995821993
1756899356.8819172,0.7604832380078628,0.793018012604945
1756899356.8836846,0.7604832380078628,0.7734709756824507
1756899356.8857355,0.7604832380078628,0.7397079119072334
1756899356.8867185,0.09003736767228863,0.7397079119072334
1756899356.8875906,0.09003736767228863,0.7183838716281488
1756899356.8897324,0.09003736767228863,0.7183838716281488
1756899356.8914568,0.09003736767228863,0.7343769018374623
1756899356.893485,0.09003736767228863,0.7450389219770046
1756899356.8954017,0.09003736767228863,0.7308228951242814
1756899356.8975756,0.09003736767228863,0.6970598313490642
1756899356.9025028,0.09003736767228863,0.6650737709304373
1756899356.9032266,0.09003736767228863,0.6561887541474853
1756899356.9034915,0.09003736767228863,0.6757357910699796
1756899356.9067647,0.09003736767228863,0.700613838062245
1756899356.912933,0.09003736767228863,0.7041678447754257
1756899356.9147294,0.09003736767228863,0.6810668011397507
1756899356.9162402,0.09003736767228863,0.6490807407211239
1756899356.9165957,0.09003736767228863,0.63131070715522
1756899356.9176478,0.09003736767228863,0.6384187205815816
1756899356.9178524,0.09003736767228863,0.6526347474343046
1756899356.9190538,0.09003736767228863,0.645526734007943
1756899356.920994,0.09003736767228863,0.6064326601629546
1756899356.922964,0.09003736767228863,0.5513455561086527
1756899356.924932,0.09003736767228863,0.506920472193893
1756899356.9268982,0.09003736767228863,0.48737343527139887
1756899356.928881,0.09003736767228863,0.47315740841867576
1756899356.9311209,0.09003736767228863,0.42873232450391613
1756899356.9327884,0.09003736767228863,0.34343616338757765
1756899356.93472,0.09003736767228863,0.23503895863556423
1756899356.937011,0.09003736767228863,0.12308774717037005
1756899356.9387248,0.09003736767228863,0.009359532348585456
1756899356.9456518,-0.04875605666987296,0.009359532348585456
1756899356.9628246,-0.04875605666987296,-0.12213871603910298
1756899356.9631605,-0.04875605666987296,-0.27496100470587603
1756899356.9633796,-0.04875605666987296,-0.43311430344242025
1756899356.9635825,-0.04875605666987296,-0.5681665585432893
1756899356.9637818,-0.04875605666987296,-0.6605707330859893
1756899356.9639812,-0.04875605666987296,-0.704995817000749
1756899356.96419,-0.04875605666987296,-0.696110800217797
1756899356.964559,-0.04875605666987296,-0.6179226525278202
1756899356.9647744,-0.04875605666987296,-0.4686543705742279
1756899356.9649718,-0.04875605666987296,-0.26607598792292414
1756899356.9651687,-0.04875605666987296,-0.04217356499253569
1756899356.9653645,-0.04875605666987296,0.17106683779831042
1756899356.9655955,-0.04875605666987296,0.3612061969534815
1756899356.9665196,-0.04875605666987296,0.5264675091163873
1756899356.968177,-0.04875605666987296,0.67751279442657
1756899356.970089,-0.04875605666987296,0.8090110428142584
1756899356.972221,-0.04875605666987296,0.9031922207135488
1756899356.9815245,-0.04875605666987296,0.9422862945585371
1756899356.981923,-0.04875605666987296,0.9209622542794526
1756899356.9821465,-0.04875605666987296,0.8605441401553795
1756899356.982344,-0.04875605666987296,0.7947950159615353
1756899356.9825375,-0.04875605666987296,0.746815925333595
1756899356.9838855,-0.04875605666987296,0.7166068682715584
1756899356.985865,-0.04875605666987296,0.7023908414188353
1756899356.9861238,-0.21825339639782584,0.7023908414188353
1756899356.9878612,-0.21825339639782584,0.6935058246358834
1756899356.9903655,-0.21825339639782584,0.6846208078529316
1756899356.9918797,-0.21825339639782584,0.6721817843567988
1756899356.9937112,-0.21825339639782584,0.6490807407211239
1756899356.995704,-0.21825339639782584,0.6242026937288584
1756899356.9976535,-0.21825339639782584,0.6064326601629546
1756899357.0002174,-0.21825339639782584,0.5975476433800027
1756899357.0042746,-0.21825339639782584,0.5815546131706892
1756899357.00454,-0.21825339639782584,0.5566765661784239
1756899357.005613,-0.21825339639782584,0.5282445124729777
1756899357.007677,-0.21825339639782584,0.5086974755504835
1756899357.0136547,-0.21825339639782584,0.5086974755504835
1756899357.0138829,-0.21825339639782584,0.5264675091163873
1756899357.0140798,-0.21825339639782584,0.5513455561086527
1756899357.0158415,-0.21825339639782584,0.5744465997443277
1756899357.0175157,-0.21825339639782584,0.5868856232404603
1756899357.0192542,-0.21825339639782584,0.5904396299536412
1756899357.0214298,-0.21825339639782584,0.5868856232404603
1756899357.0232556,-0.21825339639782584,0.5868856232404603
1756899357.0251398,-0.21825339639782584,0.5868856232404603
1756899357.0271504,-0.21825339639782584,0.576223603100918
1756899357.0290997,-0.21825339639782584,0.5495685527520623
1756899357.0310545,-0.21825339639782584,0.515805488976845
1756899357.0330868,-0.21825339639782584,0.4944814486977604
1756899357.0350263,-0.21825339639782584,0.49270444534117
1756899357.036956,-0.21825339639782584,0.49803545541094113
1756899357.038197,-0.5489491108431027,0.49803545541094113
1756899357.0390332,-0.5489491108431027,0.49270444534117
1756899357.0408924,-0.5489491108431027,0.4802654218450373
1756899357.0429118,-0.5489491108431027,0.4749344117752662
1756899357.044861,-0.5489491108431027,0.4784884184884469
1756899357.0469131,-0.5489491108431027,0.48559643191480845
1756899357.0499194,-0.5489491108431027,0.4802654218450373
1756899357.051289,-0.5489491108431027,0.4589413815659527
1756899357.0547547,-0.5489491108431027,0.4340633345736873
1756899357.054993,-0.5489491108431027,0.41629330100778345
1756899357.0566666,-0.5489491108431027,0.4074082842248315
1756899357.0585992,-0.5489491108431027,0.3967462640852892
1756899357.0605435,-0.5489491108431027,0.3860842439457469
1756899357.0627272,-0.5489491108431027,0.38253023723256613
1756899357.0644946,-0.5489491108431027,0.3985232674418796
1756899357.0664458,-0.5489491108431027,0.4305093278605065
1756899357.068484,-0.5489491108431027,0.46249538827913345
1756899357.0705156,-0.5489491108431027,0.4678263983489046
1756899357.072405,-0.5489491108431027,0.4500563647830007
1756899357.0744035,-0.5489491108431027,0.4305093278605065
1756899357.0765934,-0.5489491108431027,0.43584033793027765
1756899357.0815756,-0.5489491108431027,0.4589413815659527
1756899357.0819745,-0.5489491108431027,0.47671141513185655
1756899357.0823884,-0.5489491108431027,0.46249538827913345
1756899357.0841968,-0.5489491108431027,0.43939434464345845
1756899357.086156,-0.5489491108431027,0.4340633345736873
1756899357.086379,-1.0093612566501657,0.4340633345736873
1756899357.0881784,-1.0093612566501657,0.4500563647830007
1756899357.0900583,-1.0093612566501657,0.4553873748527719
1756899357.0921586,-1.0093612566501657,0.42695532114732576
1756899357.0980928,-1.0093612566501657,0.3914152540155181
1756899357.0983255,-1.0093612566501657,0.3914152540155181
1756899357.098523,-1.0093612566501657,0.4340633345736873
1756899357.0999165,-1.0093612566501657,0.4749344117752662
1756899357.1018755,-1.0093612566501657,0.47315740841867576
1756899357.1068788,-1.0093612566501657,0.43939434464345845
1756899357.1071467,-1.0093612566501657,0.4180703043643738
1756899357.107793,-1.0093612566501657,0.43228633121709686
1756899357.110062,-1.0093612566501657,0.45183336813959113
1756899357.1118658,-1.0093612566501657,0.4411713480000488
1756899357.1136923,-1.0093612566501657,0.40563128086824113
1756899357.1552691,-1.0093612566501657,0.38253023723256613
1756899357.1588807,-1.0093612566501657,0.3860842439457469
1756899357.1607974,-1.3326600674990126,0.3860842439457469
1756899357.161341,-1.3326600674990126,0.3967462640852892
1756899357.174783,-1.3326600674990126,0.38075323387597576
1756899357.175012,-1.3326600674990126,0.34699017010075844
1756899357.175557,-1.3326600674990126,0.3363281499612161
1756899357.1761675,-1.3326600674990126,0.3612061969534815
1756899357.17638,-1.3326600674990126,0.40030027079846997
1756899357.1765776,-1.3326600674990126,0.4198473077209642
1756899357.1767728,-1.3326600674990126,0.4180703043643738
1756899357.1769702,-1.3326600674990126,0.4216243110775546
1756899357.1771665,-1.3326600674990126,0.43584033793027765
1756899357.1790948,-1.3326600674990126,0.4305093278605065
1756899357.1793244,-1.3326600674990126,0.38963825065892765
1756899357.179535,-1.3326600674990126,0.3381051533178065
1756899357.179743,-1.3326600674990126,0.3221121231084931
1756899357.1799512,-1.3326600674990126,0.3416591600309873
1756899357.1801584,-1.3326600674990126,0.34699017010075844
1756899357.1804142,-1.3326600674990126,0.3025650861859988
1756899357.1806247,-1.3326600674990126,0.23503895863556423
1756899357.1808343,-1.3326600674990126,0.20127589486034697
1756899357.181136,-1.3326600674990126,0.22970794856579307
1756899357.1813548,-1.3326600674990126,0.27946404255032387
1756899357.1817124,-1.3326600674990126,0.30434208954258923
1756899357.1822293,-1.3326600674990126,0.2954570727596373
1756899357.1841085,-1.3326600674990126,0.27768703919373344
1756899357.1844823,-1.3326600674990126,0.26880202241078155
1756899357.1847508,-1.3326600674990126,0.2705790257673719
1756899357.184992,-1.3326600674990126,0.2759100358371431
1756899357.1852014,-1.3326600674990126,0.28834905933327576
1756899357.1854348,-1.3326600674990126,0.2954570727596373
1756899357.1856458,-1.3326600674990126,0.2741330324805527
1756899357.185854,-1.3326600674990126,0.21726892506966042
1756899357.186062,-1.3326600674990126,0.1497427975192258
1756899357.186272,-1.3326600674990126,0.11597973374400851
1756899357.1865842,-1.3326600674990126,0.1177567371005989
1756899357.1873724,-1.3326600674990126,0.1177567371005989
1756899357.1881225,-1.4762682446394602,0.1177567371005989
1756899357.1886525,-1.4762682446394602,0.0839936733253816
1756899357.1904514,-1.4762682446394602,0.027129565914489295
1756899357.1923118,-1.4762682446394602,-0.015518514643679926
1756899357.1945198,-1.4762682446394602,-0.029734541496403
1756899357.1962042,-1.4762682446394602,-0.03328854820958377
1756899357.1981938,-1.4762682446394602,-0.04750457506230684
1756899357.2011082,-1.4762682446394602,-0.0634976052716203
1756899357.2221167,-1.4762682446394602,-0.06527460862821068
1756899357.2226064,-1.4762682446394602,-0.05461258848866838
1756899357.2252853,-1.4762682446394602,-0.04750457506230684
1756899357.23858,-1.3268868744481404,-0.04750457506230684
1756899357.266428,-1.3268868744481404,-0.05638959184525876
1756899357.2735157,-1.3268868744481404,-0.07238262205457222
1756899357.2737553,-1.3268868744481404,-0.07949063548093376
1756899357.2739503,-1.3268868744481404,-0.08126763883752414
1756899357.274146,-1.3268868744481404,-0.09192965897706644
1756899357.274444,-1.3268868744481404,-0.10969969254297028
1756899357.2747753,-1.3268868744481404,-0.12213871603910298
1756899357.27498,-1.3268868744481404,-0.12036171268251258
1756899357.2751746,-1.3268868744481404,-0.10614568582978952
1756899357.275368,-1.3268868744481404,-0.09192965897706644
1756899357.2755897,-1.3268868744481404,-0.09015265562047606
1756899357.2757864,-1.3268868744481404,-0.09903767240342798
1756899357.2759862,-1.3268868744481404,-0.11325369925615106
1756899357.276185,-1.3268868744481404,-0.12391571939569336
1756899357.2763803,-1.3268868744481404,-0.12569272275228374
1756899357.2766,-1.3268868744481404,-0.12391571939569336
1756899357.2767944,-1.3268868744481404,-0.11503070261274144
1756899357.2769878,-1.3268868744481404,-0.10259167911660874
1756899357.2771833,-1.3268868744481404,-0.09548366569024722
1756899357.277379,-1.3268868744481404,-0.09548366569024722
1756899357.2775748,-1.3268868744481404,-0.08837565226388568
1756899357.277772,-1.3268868744481404,-0.05461258848866838
1756899357.2779667,-1.3268868744481404,0.014690542418356607
1756899357.2781627,-1.3268868744481404,0.08932468339515275
1756899357.2783575,-1.3268868744481404,0.1284187572401412
1756899357.2785528,-1.3268868744481404,0.11597973374400851
1756899357.27887,-1.3268868744481404,0.08932468339515275
1756899357.27907,-1.3268868744481404,0.1053177136044662
1756899357.279267,-1.3268868744481404,0.1657358277285393
1756899357.2794623,-1.3268868744481404,0.21726892506966042
1756899357.2796557,-1.3268868744481404,0.21549192171307002
1756899357.2798493,-1.3268868744481404,0.17817485122467197
1756899357.2800438,-1.3268868744481404,0.15862781430217773
1756899357.2802382,-1.3268868744481404,0.1852828646510335
1756899357.2804327,-1.3268868744481404,0.2279309452092027
1756899357.2806282,-1.3268868744481404,0.24747798213169692
1756899357.2808394,-1.3268868744481404,0.26169400898442
1756899357.2810483,-1.3268868744481404,0.30078808282940844
1756899357.284167,-1.3268868744481404,0.36653720702325265
1756899357.2846458,-1.3268868744481404,0.414516297651193
1756899357.2868192,-1.3268868744481404,0.4180703043643738
1756899357.289298,-1.3268868744481404,0.4074082842248315
1756899357.289591,-0.5446192160549486,0.4074082842248315
1756899357.2911398,-0.5446192160549486,0.42517831779073534
1756899357.2924104,-0.5446192160549486,0.4749344117752662
1756899357.2957668,-0.5446192160549486,0.515805488976845
1756899357.2975097,-0.5446192160549486,0.5246905057597969
1756899357.2982185,-0.5446192160549486,0.5229135024032066
1756899357.3023324,-0.5446192160549486,0.5442375426822912
1756899357.3051133,-0.5446192160549486,0.5833316165272796
1756899357.3056886,-0.5446192160549486,0.6135406735893161
1756899357.3061416,-0.5446192160549486,0.6242026937288584
1756899357.313974,-0.5446192160549486,0.6330877105118103
1756899357.314081,-0.5446192160549486,0.654411750790895
1756899357.3141265,-0.5446192160549486,0.668627777643618
1756899357.3141713,-0.5446192160549486,0.6473037373645334
1756899357.3162704,-0.5446192160549486,0.6028786534497739
1756899357.3179648,-0.5446192160549486,0.5726695963877373
1756899357.3199365,-0.5446192160549486,0.5780006064575084
1756899357.3218863,-0.5446192160549486,0.5975476433800027
1756899357.3240578,-0.5446192160549486,0.5975476433800027
1756899357.325929,-0.5446192160549486,0.5673385863179662
1756899357.3284602,-0.5446192160549486,0.5406835359691103
1756899357.330364,-0.5446192160549486,0.5513455561086527
1756899357.3316472,-0.5446192160549486,0.5939936366668219
1756899357.333668,-0.5446192160549486,0.6419727272947623
1756899357.33585,-0.5446192160549486,0.6668507742870277
1756899357.338622,0.6482667980815331,0.6668507742870277
1756899357.3392203,0.6482667980815331,0.6615197642172566
1756899357.339507,0.6482667980815331,0.6526347474343046
1756899357.3415422,0.6482667980815331,0.6668507742870277
1756899357.3434663,0.6482667980815331,0.7112758582017873
1756899357.345467,0.6482667980815331,0.7574779454731373
1756899357.347411,0.6482667980815331,0.7663629622560891
1756899357.3493145,0.6482667980815331,0.737930908550643
1756899357.3513362,0.6482667980815331,0.7077218514886064
1756899357.3547246,0.6482667980815331,0.714829864914968
1756899357.3552074,0.6482667980815331,0.7592549488297277
1756899357.3571982,0.6482667980815331,0.7859099991785834
1756899357.3606665,0.6482667980815331,0.7574779454731373
1756899357.3611476,0.6482667980815331,0.6881748145661123
1756899357.3649387,0.6482667980815331,0.6419727272947623
1756899357.365044,0.6482667980815331,0.6473037373645334
1756899357.3696234,0.6482667980815331,0.67751279442657
1756899357.369784,0.6482667980815331,0.6792897977831603
1756899357.370963,0.6482667980815331,0.6384187205815816
1756899357.3729117,0.6482667980815331,0.6011016500931834
1756899357.3748956,0.6482667980815331,0.6099866668761353
1756899357.3771613,0.6482667980815331,0.6615197642172566
1756899357.379782,0.6482667980815331,0.7059448481320161
1756899357.3809588,0.6482667980815331,0.7077218514886064
1756899357.3827696,0.6482667980815331,0.67751279442657
1756899357.384725,0.6482667980815331,0.654411750790895
1756899357.3867157,0.6482667980815331,0.6650737709304373
1756899357.3868637,1.6513590906705893,0.6650737709304373
1756899357.3886943,1.6513590906705893,0.6881748145661123
1756899357.3907783,1.6513590906705893,0.6899518179227027
1756899357.393257,1.6513590906705893,0.6597427608606661
1756899357.3965445,1.6513590906705893,0.6153176769459066
1756899357.396917,1.6513590906705893,0.5797776098140989
1756899357.3986528,1.6513590906705893,0.5691155896745566
1756899357.400499,1.6513590906705893,0.5726695963877373
1756899357.4034202,1.6513590906705893,0.5726695963877373
1756899357.4044693,1.6513590906705893,0.5637845796047853
1756899357.4064748,1.6513590906705893,0.553122559465243
1756899357.4084203,1.6513590906705893,0.5495685527520623
1756899357.4104314,1.6513590906705893,0.5566765661784239
1756899357.4123957,1.6513590906705893,0.5673385863179662
1756899357.4147663,1.6513590906705893,0.5780006064575084
1756899357.4161627,1.6513590906705893,0.5904396299536412
1756899357.4181662,1.6513590906705893,0.608209663519545
1756899357.4206142,1.6513590906705893,0.6295337037986296
1756899357.4222038,1.6513590906705893,0.6490807407211239
1756899357.4240212,1.6513590906705893,0.6526347474343046
1756899357.4261112,1.6513590906705893,0.6384187205815816
1756899357.4281006,1.6513590906705893,0.608209663519545
1756899357.430114,1.6513590906705893,0.5744465997443277
1756899357.434379,1.6513590906705893,0.5566765661784239
1756899357.4344995,1.6513590906705893,0.5602305728916046
1756899357.435841,1.6513590906705893,0.562007576248195
1756899357.436036,1.557544703593915,0.562007576248195
1756899357.437789,1.557544703593915,0.5424605393257007
1756899357.4398158,1.557544703593915,0.49270444534117
1756899357.4418235,1.557544703593915,0.43939434464345845
1756899357.445048,1.557544703593915,0.414516297651193
1756899357.44569,1.557544703593915,0.4411713480000488
1756899357.44802,1.557544703593915,0.49625845205435076
1756899357.4503667,1.557544703593915,0.5406835359691103
1756899357.4515676,1.557544703593915,0.5353525258993392
1756899357.4536345,1.557544703593915,0.4909274419845796
1756899357.455495,1.557544703593915,0.4500563647830007
1756899357.4574838,1.557544703593915,0.45183336813959113
1756899357.4596674,1.557544703593915,0.48559643191480845
1756899357.461368,1.557544703593915,0.49625845205435076
1756899357.463499,1.557544703593915,0.4553873748527719
1756899357.4653358,1.557544703593915,0.3878612473023373
1756899357.4674113,1.557544703593915,0.3363281499612161
1756899357.4695106,1.557544703593915,0.31500410968213155
1756899357.473879,1.557544703593915,0.30078808282940844
1756899357.4740326,1.557544703593915,0.27768703919373344
1756899357.4773011,1.557544703593915,0.2599170056278296
1756899357.477442,1.557544703593915,0.26169400898442
1756899357.479107,1.557544703593915,0.2670250190541911
1756899357.4812846,1.557544703593915,0.25458599555805844
1756899357.4836557,1.557544703593915,0.23326195527897384
1756899357.4851189,1.557544703593915,0.23681596199215463
1756899357.486055,0.2514499819754848,0.23681596199215463
1756899357.486993,0.2514499819754848,0.2705790257673719
1756899357.4889808,0.2514499819754848,0.2990110794728181
1756899357.491085,0.2514499819754848,0.28124104590691423
1756899357.4929936,0.2514499819754848,0.2403699687053354
1756899357.4948523,0.2514499819754848,0.22970794856579307
1756899357.4969182,0.2514499819754848,0.26169400898442
1756899357.498858,0.2514499819754848,0.2936800694030469
1756899357.500986,0.2514499819754848,0.27768703919373344
1756899357.507259,0.2514499819754848,0.23681596199215463
1756899357.5074067,0.2514499819754848,0.22437693849602194
1756899357.5075614,0.2514499819754848,0.25636299891464887
1756899357.50955,0.2514499819754848,0.2865720559766854
1756899357.510537,0.2514499819754848,0.2741330324805527
1756899357.513191,0.2514499819754848,0.23326195527897384
1756899357.5144887,0.2514499819754848,0.2083839082867085
1756899357.5193114,0.2514499819754848,0.22082293178284118
1756899357.520697,0.2514499819754848,0.23681596199215463
1756899357.5213675,0.2514499819754848,0.22259993513943158
1756899357.5222938,0.2514499819754848,0.18883687136421426
1756899357.524319,0.2514499819754848,0.17106683779831042
1756899357.526318,0.2514499819754848,0.17817485122467197
1756899357.5282357,0.2514499819754848,0.19061387472080465
1756899357.5302658,0.2514499819754848,0.18883687136421426
1756899357.5322638,0.2514499819754848,0.1746208445114912
1756899357.534277,0.2514499819754848,0.16040481765876813
1756899357.535586,-0.45224812724099234,0.16040481765876813
1756899357.5363033,-0.45224812724099234,0.14796579416263544
1756899357.53835,-0.45224812724099234,0.1301957605967316
1756899357.540281,-0.45224812724099234,0.11420273038741813
1756899357.543336,-0.45224812724099234,0.10709471696105659
1756899357.5440016,-0.45224812724099234,0.10354071024787583
1756899357.5461965,-0.45224812724099234,0.08577067668197198
1756899357.5480294,-0.45224812724099234,0.05023060955016429
1756899357.549925,-0.45224812724099234,0.02002155248812776
1756899357.5519814,-0.45224812724099234,0.016467545774946992
1756899357.5575588,-0.45224812724099234,0.03246057598426045
1756899357.5576694,-0.45224812724099234,0.04134559276721237
1756899357.557737,-0.45224812724099234,0.027129565914489295
1756899357.55979,-0.45224812724099234,0.005805525635404687
1756899357.561747,-0.45224812724099234,0.004028522278814303
1756899357.5636892,-0.45224812724099234,0.02357555920130853
1756899357.565699,-0.45224812724099234,0.04667660283698352
1756899357.5678265,-0.45224812724099234,0.06266963304629698
1756899357.5696692,-0.45224812724099234,0.0733316531858393
1756899357.5717435,-0.45224812724099234,0.08043966661220082
1756899357.5735629,-0.45224812724099234,0.08043966661220082
1756899357.5762336,-0.45224812724099234,0.0715546498292489
1756899357.5774796,-0.45224812724099234,0.0733316531858393
1756899357.5796478,-0.45224812724099234,0.09998670353469506
1756899357.5843534,1.5647611949075053,0.09998670353469506
1756899357.585518,1.5647611949075053,0.13908077737968352
1756899357.585636,1.5647611949075053,0.16040481765876813
1756899357.5857182,1.5647611949075053,0.15685081094558737
1756899357.5872226,1.5647611949075053,0.15329680423240657
1756899357.5891764,1.5647611949075053,0.17106683779831042
1756899357.5911877,1.5647611949075053,0.20482990157352773
1756899357.5930676,1.5647611949075053,0.22615394185261234
1756899357.6015866,1.5647611949075053,0.22082293178284118
1756899357.6019564,1.5647611949075053,0.20482990157352773
1756899357.602036,1.5647611949075053,0.1959448847905758
1756899357.6021209,1.5647611949075053,0.18350586129444313
1756899357.6030202,1.5647611949075053,0.15329680423240657
1756899357.6071374,1.5647611949075053,0.11064872367423736
1756899357.607816,1.5647611949075053,0.08221666996879122
1756899357.608898,1.5647611949075053,0.07688565989902006
1756899357.6111386,1.5647611949075053,0.08577067668197198
1756899357.613706,1.5647611949075053,0.0946556934649239
1756899357.615066,1.5647611949075053,0.09998670353469506
1756899357.624518,1.5647611949075053,0.11420273038741813
1756899357.624615,1.5647611949075053,0.13908077737968352
1756899357.624684,1.5647611949075053,0.1657358277285393
1756899357.6247509,1.5647611949075053,0.1852828646510335
1756899357.6248174,1.5647611949075053,0.1959448847905758
1756899357.6265354,1.5647611949075053,0.20305289821693734
1756899357.628518,1.5647611949075053,0.19949889150375658
1756899357.630498,1.5647611949075053,0.18172885793785273
1756899357.6324952,1.5647611949075053,0.16040481765876813
1756899357.6348605,1.5647611949075053,0.14441178744945465
1756899357.6356711,1.7783693377897791,0.14441178744945465
1756899357.6363611,1.7783693377897791,0.13908077737968352
1756899357.6382506,1.7783693377897791,0.13730377402309313
1756899357.6402488,1.7783693377897791,0.13552677066650273
1756899357.6421814,1.7783693377897791,0.13730377402309313
1756899357.644136,1.7783693377897791,0.15507380758899697
1756899357.6461484,1.7783693377897791,0.17995185458126234
1756899357.648115,1.7783693377897791,0.19061387472080465
1756899357.6501677,1.7783693377897791,0.17995185458126234
1756899357.6520386,1.7783693377897791,0.17106683779831042
1756899357.6555436,1.7783693377897791,0.19239087807739505
1756899357.6560216,1.7783693377897791,0.24392397541851615
1756899357.658846,1.7783693377897791,0.2901260626898661
1756899357.6598954,1.7783693377897791,0.2990110794728181
1756899357.6620278,1.7783693377897791,0.27946404255032387
1756899357.6664476,1.7783693377897791,0.26880202241078155
1756899357.6665752,1.7783693377897791,0.2901260626898661
1756899357.6677594,1.7783693377897791,0.3292201365348546
1756899357.669726,1.7783693377897791,0.35765219024030076
1756899357.6717026,1.7783693377897791,0.35942919359689113
1756899357.6742258,1.7783693377897791,0.3381051533178065
1756899357.6755958,1.7783693377897791,0.31145010296895076
1756899357.6795542,1.7783693377897791,0.2901260626898661
1756899357.6800764,1.7783693377897791,0.2830180492635046
1756899357.6815004,1.7783693377897791,0.2954570727596373
1756899357.683487,1.7783693377897791,0.3061190928991796
1756899357.686334,1.7783693377897791,0.2830180492635046
1756899357.6874025,1.7783693377897791,0.22082293178284118
1756899357.6893718,1.7783693377897791,0.15862781430217773
1756899357.6913218,1.7783693377897791,0.1497427975192258
1756899357.6933444,1.7783693377897791,0.18883687136421426
1756899357.69613,1.7783693377897791,0.22259993513943158
1756899357.6973107,1.7783693377897791,0.20305289821693734
1756899357.6974883,1.6816683541876687,0.20305289821693734
1756899357.6997192,1.6816683541876687,0.14796579416263544
1756899357.701271,1.6816683541876687,0.11420273038741813
1756899357.7039585,1.6816683541876687,0.12486475052696043
1756899357.705176,1.6816683541876687,0.14618879080604505
1756899357.7077034,1.6816683541876687,0.14441178744945465
1756899357.7091093,1.6816683541876687,0.12131074381377967
1756899357.711081,1.6816683541876687,0.1053177136044662
1756899357.713591,1.6816683541876687,0.11420273038741813
1756899357.7149808,1.6816683541876687,0.13197276395332197
1756899357.717033,1.6816683541876687,0.14441178744945465
1756899357.7189794,1.6816683541876687,0.1426347840928643
1756899357.7218506,1.6816683541876687,0.12131074381377967
1756899357.722877,1.6816683541876687,0.07688565989902006
1756899357.724799,1.6816683541876687,0.03246057598426045
1756899357.7267091,1.6816683541876687,0.021798555844718143
1756899357.735689,1.6816683541876687,0.05200761290675467
1756899357.7357786,1.6816683541876687,0.0715546498292489
1756899357.735823,1.6816683541876687,0.027129565914489295
1756899357.735867,1.6816683541876687,-0.06172060191502991
1756899357.7369244,1.6816683541876687,-0.11325369925615106
1756899357.738151,0.8409471161543949,-0.11325369925615106
1756899357.7386725,0.8409471161543949,-0.07771363212434337
1756899357.741471,0.8409471161543949,0.007582528991995071
1756899357.7428818,0.8409471161543949,0.05378461626334506
1756899357.7447188,0.8409471161543949,0.030683572627670064
1756899357.7477543,0.8409471161543949,-0.0013024877909568503
1756899357.7486258,0.8409471161543949,0.014690542418356607
1756899357.7510576,0.8409471161543949,0.07688565989902006
1756899357.7527716,0.8409471161543949,0.13374976730991237
1756899357.7569315,0.8409471161543949,0.1497427975192258
1756899357.757135,0.8409471161543949,0.1426347840928643
1756899357.7586887,0.8409471161543949,0.14441178744945465
1756899357.7604382,0.8409471161543949,0.15329680423240657
1756899357.7623806,0.8409471161543949,0.1497427975192258
1756899357.7643645,0.8409471161543949,0.13197276395332197
1756899357.7663736,0.8409471161543949,0.12308774717037005
1756899357.7686558,0.8409471161543949,0.1408577807362739
1756899357.770185,0.8409471161543949,0.1746208445114912
1756899357.7722092,0.8409471161543949,0.19949889150375658
1756899357.7743747,0.8409471161543949,0.2083839082867085
1756899357.776117,0.8409471161543949,0.21726892506966042
1756899357.7780385,0.8409471161543949,0.238592965348745
1756899357.788314,0.8409471161543949,0.28479505262009497
1756899357.7889636,0.8409471161543949,0.3452131667441681
1756899357.7901862,0.05759698406416453,0.3452131667441681
1756899357.7918377,0.05759698406416453,0.3985232674418796
1756899357.792616,0.05759698406416453,0.4198473077209642
1756899357.7933547,0.05759698406416453,0.40563128086824113
1756899357.815971,0.05759698406416453,0.37719922716279497
1756899357.8161583,0.05759698406416453,0.3718682170930238
1756899357.8163154,0.05759698406416453,0.3985232674418796
1756899357.8175287,0.05759698406416453,0.42873232450391613
1756899357.8180723,0.05759698406416453,0.43228633121709686
1756899357.8182385,0.05759698406416453,0.40563128086824113
1756899357.81843,0.05759698406416453,0.38253023723256613
1756899357.8186336,0.05759698406416453,0.39319225737210844
1756899357.818854,0.05759698406416453,0.42517831779073534
1756899357.819112,0.05759698406416453,0.44650235806981997
1756899357.8390548,-0.25072760730898236,0.44650235806981997
1756899357.8422575,-0.25072760730898236,0.437617341286868
1756899357.8423665,-0.25072760730898236,0.4109622909380123
1756899357.8424196,-0.25072760730898236,0.3860842439457469
1756899357.842472,-0.25072760730898236,0.3647602036666623
1756899357.8425243,-0.25072760730898236,0.3487671734573488
1756899357.842575,-0.25072760730898236,0.3487671734573488
1756899357.8426423,-0.25072760730898236,0.3683142103798431
1756899357.842693,-0.25072760730898236,0.3878612473023373
1756899357.8427453,-0.25072760730898236,0.38075323387597576
1756899357.8427968,-0.25072760730898236,0.3523211801705296
1756899357.842848,-0.25072760730898236,0.3452131667441681
1756899357.842899,-0.25072760730898236,0.3914152540155181
1756899357.8429518,-0.25072760730898236,0.4713804050620854
1756899357.8430023,-0.25072760730898236,0.5229135024032066
1756899357.8430536,-0.25072760730898236,0.5122514822636642
1756899357.843105,-0.25072760730898236,0.47315740841867576
1756899357.8431554,-0.25072760730898236,0.4713804050620854
1756899357.843207,-0.25072760730898236,0.5193594956900258
1756899357.8452432,-0.25072760730898236,0.5708925930311469
1756899357.8469205,-0.25072760730898236,0.5833316165272796
1756899357.8488302,-0.25072760730898236,0.5655615829613757
1756899357.8506925,-0.25072760730898236,0.562007576248195
1756899357.8527358,-0.25072760730898236,0.5886626265970507
1756899357.8560178,-0.25072760730898236,0.608209663519545
1756899357.8597069,-0.25072760730898236,0.5868856232404603
1756899357.860134,-0.25072760730898236,0.5371295292559296
1756899357.861309,-0.25072760730898236,0.506920472193893
1756899357.862678,-0.25072760730898236,0.5140284856202546
1756899357.8654463,-0.25072760730898236,0.5229135024032066
1756899357.8668036,-0.25072760730898236,0.49803545541094113
1756899357.8694618,-0.25072760730898236,0.4429483513566392
1756899357.8705182,-0.25072760730898236,0.3967462640852892
1756899357.8723755,-0.25072760730898236,0.3683142103798431
1756899357.874842,-0.25072760730898236,0.3363281499612161
1756899357.8764038,-0.25072760730898236,0.2759100358371431
1756899357.8786616,-0.25072760730898236,0.20127589486034697
1756899357.8802283,-0.25072760730898236,0.1284187572401412
1756899357.8823674,-0.25072760730898236,0.04489959948039314
1756899357.8843842,-0.25072760730898236,-0.07949063548093376
1756899357.886324,-0.25072760730898236,-0.24297494428724914
1756899357.8867588,-0.43095947786590083,-0.24297494428724914
1756899357.8880124,-0.43095947786590083,-0.4082362564501549
1756899357.8905303,-0.43095947786590083,-0.5450655149076145
1756899357.89194,-0.43095947786590083,-0.6659017431557606
1756899357.894841,-0.43095947786590083,-0.797399991543449
1756899357.8959978,-0.43095947786590083,-0.9342292500009086
1756899357.8982053,-0.43095947786590083,-1.0408494513963318
1756899357.900608,-0.43095947786590083,-1.0906055453808625
1756899357.9018424,-0.43095947786590083,-1.0781665218847298
1756899357.903783,-0.43095947786590083,-1.0106403943342952
1756899357.9062183,-0.43095947786590083,-0.8702571291636547
1756899357.9076843,-0.43095947786590083,-0.6481317095898567
1756899357.90965,-0.43095947786590083,-0.3798042027447087
1756899357.9118657,-0.43095947786590083,-0.13280073617864527
1756899357.9137895,-0.43095947786590083,0.05023060955016429
1756899357.9165945,-0.43095947786590083,0.1852828646510335
1756899357.9175727,-0.43095947786590083,0.3185581163953123
1756899357.9196196,-0.43095947786590083,0.4589413815659527
1756899357.9214191,-0.43095947786590083,0.576223603100918
1756899357.9235525,-0.43095947786590083,0.6259796970854489
1756899357.9263146,-0.43095947786590083,0.599324646736593
1756899357.9273868,-0.43095947786590083,0.530021515829568
1756899357.9295185,-0.43095947786590083,0.46249538827913345
1756899357.9313154,-0.43095947786590083,0.43584033793027765
1756899357.93338,-0.43095947786590083,0.44827936142641034
1756899357.9352195,-0.43095947786590083,0.47671141513185655
1756899357.9373896,-0.43095947786590083,0.4909274419845796
1756899357.938618,-0.7582273589372224,0.4909274419845796
1756899357.9391427,-0.7582273589372224,0.48559643191480845
1756899357.9414942,-0.7582273589372224,0.4838194285582181
1756899357.9430623,-0.7582273589372224,0.515805488976845
1756899357.945003,-0.7582273589372224,0.5744465997443277
1756899357.9469893,-0.7582273589372224,0.6259796970854489
1756899357.949545,-0.7582273589372224,0.6295337037986296
1756899357.9512792,-0.7582273589372224,0.5886626265970507
1756899357.9529183,-0.7582273589372224,0.53890653261252
1756899357.9548793,-0.7582273589372224,0.5122514822636642
1756899357.956828,-0.7582273589372224,0.5104744789070739
1756899357.9588337,-0.7582273589372224,0.506920472193893
1756899357.9607909,-0.7582273589372224,0.47671141513185655
1756899357.9628413,-0.7582273589372224,0.42517831779073534
1756899357.964994,-0.7582273589372224,0.3878612473023373
1756899357.9667797,-0.7582273589372224,0.39319225737210844
1756899357.96861,-0.7582273589372224,0.4340633345736873
1756899357.970678,-0.7582273589372224,0.4749344117752662
1756899357.972896,-0.7582273589372224,0.48737343527139887
1756899357.9753196,-0.7582273589372224,0.47671141513185655
1756899357.9764743,-0.7582273589372224,0.4820424252016277
1756899357.9785657,-0.7582273589372224,0.5193594956900258
1756899357.9804654,-0.7582273589372224,0.562007576248195
1756899357.9824026,-0.7582273589372224,0.5637845796047853
1756899357.984399,-0.7582273589372224,0.5140284856202546
1756899357.986389,-0.7582273589372224,0.4500563647830007
1756899357.9871137,-1.077196274997915,0.4500563647830007
1756899357.9882843,-1.077196274997915,0.41629330100778345
1756899357.990353,-1.077196274997915,0.414516297651193
1756899358.0128584,-1.077196274997915,0.41273929429460265
1756899358.0133142,-1.077196274997915,0.38253023723256613
1756899358.0139432,-1.077196274997915,0.3487671734573488
1756899358.014428,-1.077196274997915,0.3523211801705296
1756899358.0146842,-1.077196274997915,0.4091852875814219
1756899358.0148833,-1.077196274997915,0.4749344117752662
1756899358.0150783,-1.077196274997915,0.5015894621241219
1756899358.0154042,-1.077196274997915,0.4838194285582181
1756899358.0157554,-1.077196274997915,0.4553873748527719
1756899358.0159526,-1.077196274997915,0.4536103714961815
1756899358.016755,-1.077196274997915,0.4678263983489046
1756899358.0170736,-1.077196274997915,0.4678263983489046
1756899358.0173893,-1.077196274997915,0.4411713480000488
1756899358.022111,-1.077196274997915,0.40207727415506034
1756899358.022451,-1.077196274997915,0.3860842439457469
1756899358.022655,-1.077196274997915,0.40207727415506034
1756899358.0304904,-1.077196274997915,0.43228633121709686
1756899358.0312417,-1.077196274997915,0.44650235806981997
1756899358.0320256,-1.077196274997915,0.4340633345736873
1756899358.0328288,-1.077196274997915,0.4074082842248315
1756899358.0330594,-1.077196274997915,0.3949692607286988
1756899358.0335867,-1.077196274997915,0.4198473077209642
1756899358.0355527,-1.077196274997915,0.4713804050620854
1756899358.037548,-1.077196274997915,0.5015894621241219
1756899358.0387814,-1.2915260670115478,0.5015894621241219
1756899358.0394616,-1.2915260670115478,0.4678263983489046
1756899358.0414312,-1.2915260670115478,0.38075323387597576
1756899358.043406,-1.2915260670115478,0.31500410968213155
1756899358.0453591,-1.2915260670115478,0.3327741432480354
1756899358.0473049,-1.2915260670115478,0.4180703043643738
1756899358.0492892,-1.2915260670115478,0.4838194285582181
1756899358.053196,-1.2915260670115478,0.4589413815659527
1756899358.0535605,-1.2915260670115478,0.3683142103798431
1756899358.065905,-1.2915260670115478,0.30789609625576997
1756899358.0662007,-1.2915260670115478,0.3327741432480354
1756899358.0664012,-1.2915260670115478,0.40030027079846997
1756899358.066596,-1.2915260670115478,0.4305093278605065
1756899358.066826,-1.2915260670115478,0.3860842439457469
1756899358.067023,-1.2915260670115478,0.31145010296895076
1756899358.067218,-1.2915260670115478,0.28124104590691423
1756899358.0789275,-1.2915260670115478,0.31145010296895076
1756899358.0791757,-1.2915260670115478,0.3523211801705296
1756899358.0793734,-1.2915260670115478,0.3487671734573488
1756899358.0795703,-1.2915260670115478,0.2972340761162277
1756899358.080203,-1.2915260670115478,0.2510319888448777
1756899358.0806096,-1.2915260670115478,0.2599170056278296
1756899358.0809114,-1.2915260670115478,0.31145010296895076
1756899358.082764,-1.2915260670115478,0.3452131667441681
1756899358.0846217,-1.2915260670115478,0.3167811130387219
1756899358.0865717,-1.2915260670115478,0.24747798213169692
1756899358.086662,-1.358639436227938,0.24747798213169692
1756899358.0885506,-1.358639436227938,0.19416788143398542
1756899358.0905013,-1.358639436227938,0.20127589486034697
1756899358.0926716,-1.358639436227938,0.24570097877510655
1756899358.103444,-1.358639436227938,0.2741330324805527
1756899358.103734,-1.358639436227938,0.2510319888448777
1756899358.103929,-1.358639436227938,0.19239087807739505
1756899358.104459,-1.358639436227938,0.13730377402309313
1756899358.1046588,-1.358639436227938,0.1177567371005989
1756899358.1048615,-1.358639436227938,0.12486475052696043
1756899358.1064482,-1.358639436227938,0.13197276395332197
1756899358.1084683,-1.358639436227938,0.12131074381377967
1756899358.110376,-1.358639436227938,0.09287869010833352
1756899358.113907,-1.358639436227938,0.05733862297652584
1756899358.114823,-1.358639436227938,0.03423757934085083
1756899358.118838,-1.358639436227938,0.025352562557898913
1756899358.1191485,-1.358639436227938,0.018244549131537374
1756899358.1201024,-1.358639436227938,0.0022515189222239184
1756899358.1283548,-1.358639436227938,-0.010187504573908771
1756899358.1285987,-1.358639436227938,-0.006633497860728003
1756899358.1298792,-1.358639436227938,0.007582528991995071
1756899358.13174,-1.358639436227938,0.00047451556563353405
1756899358.1322846,-1.358639436227938,-0.04750457506230684
1756899358.1324947,-1.358639436227938,-0.12036171268251258
1756899358.134365,-1.358639436227938,-0.18433383351976643
1756899358.1359055,-1.358639436227938,-0.2216509040081645
1756899358.137814,-1.358639436227938,-0.24297494428724914
1756899358.1396518,-1.358639436227938,-0.27318400134928567
1756899358.1416688,-1.358639436227938,-0.3140550785508645
1756899358.144692,-1.358639436227938,-0.3478181423260818
1756899358.1461244,-1.358639436227938,-0.36736517924857603
1756899358.1519642,-1.358639436227938,-0.36736517924857603
1756899358.1523716,-1.358639436227938,-0.3531491523958529
1756899358.1528358,-1.358639436227938,-0.32116309197722603
1756899358.1534262,-1.358639436227938,-0.28206901813223756
1756899358.1571436,-1.358639436227938,-0.260744977853153
1756899358.157362,-1.358639436227938,-0.27673800806246646
1756899358.159528,-1.358639436227938,-0.32827110540358756
1756899358.1612818,-1.358639436227938,-0.3851352128144799
1756899358.1632595,-1.358639436227938,-0.42245228330287793
1756899358.1652486,-1.358639436227938,-0.4384453135121914
1756899358.1673322,-1.358639436227938,-0.46154635714786635
1756899358.1695151,-1.358639436227938,-0.5113024511323971
1756899358.169533,-1.3600827344906559,-0.5113024511323971
1756899358.1710703,-1.3600827344906559,-0.5752745719696509
1756899358.173277,-1.3600827344906559,-0.6179226525278202
1756899358.1750348,-1.3600827344906559,-0.6143686458146393
1756899358.179933,-1.3600827344906559,-0.5752745719696509
1756899358.1801596,-1.3600827344906559,-0.5361804981246625
1756899358.1815877,-1.3600827344906559,-0.5130794544889875
1756899358.1830952,-1.3600827344906559,-0.4988634276362644
1756899358.187875,-1.3600827344906559,-0.47220837728740866
1756899358.188106,-1.3600827344906559,-0.4384453135121914
1756899358.1888528,-1.3600827344906559,-0.42245228330287793
1756899358.1909163,-1.3600827344906559,-0.42956029672923945
1756899358.1912863,-1.3940002436645305,-0.42956029672923945
1756899358.1938832,-1.3940002436645305,-0.4384453135121914
1756899358.1947389,-1.3940002436645305,-0.42956029672923945
1756899358.1966517,-1.3940002436645305,-0.40645925309356445
1756899358.1986527,-1.3940002436645305,-0.40112824302379335
1756899358.2007012,-1.3940002436645305,-0.41712127323310677
1756899358.2040515,-1.3940002436645305,-0.4260062900160587
1756899358.204544,-1.3940002436645305,-0.39402022959743177
1756899358.206474,-1.3940002436645305,-0.3264941020469972
1756899358.208552,-1.3940002436645305,-0.2642989845663337
1756899358.210457,-1.3940002436645305,-0.22875891743452606
1756899358.2124195,-1.3940002436645305,-0.2092118805120318
1756899358.2143276,-1.3940002436645305,-0.17722582009340487
1756899358.221033,-1.3940002436645305,-0.1292467294654645
1756899358.221251,-1.3940002436645305,-0.07949063548093376
1756899358.2214482,-1.3940002436645305,-0.04928157841889723
1756899358.2232363,-1.3940002436645305,-0.03861955827935492
1756899358.2241795,-1.3940002436645305,-0.03861955827935492
1756899358.2263055,-1.3940002436645305,-0.029734541496403
1756899358.2364664,-1.3940002436645305,-0.004856494504137619
1756899358.2368357,-1.3940002436645305,0.030683572627670064
1756899358.237291,-1.3940002436645305,0.06977764647265852
1756899358.2376895,-1.3940002436645305,0.1053177136044662
1756899358.2380755,0.4638854450193001,0.1053177136044662
1756899358.2389455,0.4638854450193001,0.13908077737968352
1756899358.2391503,0.4638854450193001,0.17995185458126234
1756899358.2398765,0.4638854450193001,0.22437693849602194
1756899358.242027,0.4638854450193001,0.26169400898442
1756899358.2439475,0.4638854450193001,0.2830180492635046
1756899358.245967,0.4638854450193001,0.28834905933327576
1756899358.2478163,0.4638854450193001,0.2865720559766854
1756899358.2497797,0.4638854450193001,0.2936800694030469
1756899358.2564914,0.4638854450193001,0.3096730996123604
1756899358.25675,0.4638854450193001,0.3398821566743969
1756899358.2616897,0.4638854450193001,0.3754222238062046
1756899358.2619696,0.4638854450193001,0.4074082842248315
1756899358.2621884,0.4638854450193001,0.42873232450391613
1756899358.262385,0.4638854450193001,0.43228633121709686
1756899358.2635734,0.4638854450193001,0.4340633345736873
1756899358.2664218,0.4638854450193001,0.43939434464345845
1756899358.2674198,0.4638854450193001,0.4429483513566392
1756899358.2694345,0.4638854450193001,0.42873232450391613
1756899358.271484,0.4638854450193001,0.40563128086824113
1756899358.2733445,0.4638854450193001,0.4091852875814219
1756899358.276091,0.4638854450193001,0.4607183849225431
1756899358.277268,0.4638854450193001,0.5282445124729777
1756899358.2790904,0.4638854450193001,0.5602305728916046
1756899358.2810335,0.4638854450193001,0.5406835359691103
1756899358.283062,0.4638854450193001,0.5246905057597969
1756899358.2851367,0.4638854450193001,0.5655615829613757
1756899358.2860527,0.7958440454444553,0.5655615829613757
1756899358.2875707,0.7958440454444553,0.6473037373645334
1756899358.289431,0.7958440454444553,0.6863978112095219
1756899358.290911,0.7958440454444553,0.6242026937288584
1756899358.2928598,0.7958440454444553,0.5051434688373027
1756899358.295179,0.7958440454444553,0.4340633345736873
1756899358.2967656,0.7958440454444553,0.46604939499231424
1756899358.2987866,0.7958440454444553,0.5495685527520623
1756899358.300747,0.7958440454444553,0.6011016500931834
1756899358.3026662,0.7958440454444553,0.5868856232404603
1756899358.305628,0.7958440454444553,0.562007576248195
1756899358.3069224,0.7958440454444553,0.5797776098140989
1756899358.3135502,0.7958440454444553,0.6330877105118103
1756899358.3136835,0.7958440454444553,0.67751279442657
1756899358.3137465,0.7958440454444553,0.6899518179227027
1756899358.3145292,0.7958440454444553,0.6935058246358834
1756899358.3164845,0.7958440454444553,0.6952828279924738
1756899358.3186328,0.7958440454444553,0.6846208078529316
1756899358.320366,0.7958440454444553,0.6473037373645334
1756899358.3244271,0.7958440454444553,0.6135406735893161
1756899358.3246517,0.7958440454444553,0.6259796970854489
1756899358.3270264,0.7958440454444553,0.6792897977831603
1756899358.3283267,0.7958440454444553,0.7183838716281488
1756899358.3307085,0.7958440454444553,0.7059448481320161
1756899358.3345408,0.7958440454444553,0.6704047810002084
1756899358.3347554,0.7958440454444553,0.6721817843567988
1756899358.3361835,0.7958440454444553,0.72371488169792
1756899358.3384185,1.0552769081680278,0.72371488169792
1756899358.3384857,1.0552769081680278,0.7716939723258603
1756899358.340079,1.0552769081680278,0.7645859588994988
1756899358.3420863,1.0552769081680278,0.7059448481320161
1756899358.3440518,1.0552769081680278,0.6508577440777142
1756899358.34607,1.0552769081680278,0.6401957239381719
1756899358.3479838,1.0552769081680278,0.6650737709304373
1756899358.351725,1.0552769081680278,0.6792897977831603
1756899358.352992,1.0552769081680278,0.6615197642172566
1756899358.3538768,1.0552769081680278,0.6206486870156777
1756899358.3559148,1.0552769081680278,0.5868856232404603
1756899358.3738933,1.0552769081680278,0.5833316165272796
1756899358.374486,1.0552769081680278,0.6117636702327257
1756899358.3750825,1.0552769081680278,0.6490807407211239
1756899358.3754902,1.0552769081680278,0.6721817843567988
1756899358.375691,1.0552769081680278,0.6739587877133892
1756899358.377092,1.0552769081680278,0.6704047810002084
1756899358.3774805,1.0552769081680278,0.6846208078529316
1756899358.377679,1.0552769081680278,0.7130528615583777
1756899358.3779323,1.0552769081680278,0.7308228951242814
1756899358.378538,1.0552769081680278,0.7254918850545103
1756899358.3787389,1.0552769081680278,0.7041678447754257
1756899358.3795772,1.0552769081680278,0.6881748145661123
1756899358.3815286,1.0552769081680278,0.6899518179227027
1756899358.383524,1.0552769081680278,0.6988368347056546
1756899358.3855436,1.0552769081680278,0.700613838062245
1756899358.3860338,1.687441547238541,0.700613838062245
1756899358.3876212,1.687441547238541,0.6970598313490642
1756899358.3894885,1.687441547238541,0.6935058246358834
1756899358.3912177,1.687441547238541,0.6881748145661123
1756899358.393352,1.687441547238541,0.6810668011397507
1756899358.4000516,1.687441547238541,0.6810668011397507
1756899358.400352,1.687441547238541,0.6935058246358834
1756899358.40055,1.687441547238541,0.7077218514886064
1756899358.401225,1.687441547238541,0.7041678447754257
1756899358.4036412,1.687441547238541,0.6828438044963411
1756899358.404984,1.687441547238541,0.6704047810002084
1756899358.4070127,1.687441547238541,0.6846208078529316
1756899358.4090235,1.687441547238541,0.7166068682715584
1756899358.4108908,1.687441547238541,0.737930908550643
1756899358.4131036,1.687441547238541,0.7308228951242814
1756899358.4149349,1.687441547238541,0.7112758582017873
1756899358.416856,1.687441547238541,0.6952828279924738
1756899358.4187877,1.687441547238541,0.6881748145661123
1756899358.4209306,1.687441547238541,0.67751279442657
1756899358.4226878,1.687441547238541,0.6650737709304373
1756899358.4381216,1.517132352237809,0.6650737709304373
1756899358.4817967,1.517132352237809,0.6579657575040757
1756899358.4866457,1.2313592962196318,0.6579657575040757
1756899358.5061982,1.2313592962196318,0.6650737709304373
1756899358.5142925,1.2313592962196318,0.67751279442657
1756899358.5155356,1.2313592962196318,0.6828438044963411
1756899358.516079,1.2313592962196318,0.67751279442657
1756899358.5162885,1.2313592962196318,0.6650737709304373
1756899358.5164862,1.2313592962196318,0.6437497306513527
1756899358.5166824,1.2313592962196318,0.622425690372268
1756899358.5168917,1.2313592962196318,0.6153176769459066
1756899358.5172122,1.2313592962196318,0.6295337037986296
1756899358.517413,1.2313592962196318,0.6473037373645334
1756899358.51761,1.2313592962196318,0.6419727272947623
1756899358.5191565,1.2313592962196318,0.6099866668761353
1756899358.5194292,1.2313592962196318,0.5833316165272796
1756899358.5225065,1.2313592962196318,0.5886626265970507
1756899358.5232942,1.2313592962196318,0.608209663519545
1756899358.5235586,1.2313592962196318,0.6011016500931834
1756899358.5253856,1.2313592962196318,0.562007576248195
1756899358.526935,1.2313592962196318,0.5282445124729777
1756899358.5272276,1.2313592962196318,0.5335755225427489
1756899358.5273874,1.2313592962196318,0.5602305728916046
1756899358.527582,1.2313592962196318,0.5602305728916046
1756899358.527945,1.2313592962196318,0.5193594956900258
1756899358.5283062,1.2313592962196318,0.4784884184884469
1756899358.5283935,1.2313592962196318,0.4820424252016277
1756899358.528497,1.2313592962196318,0.5264675091163873
1756899358.5285475,1.2313592962196318,0.5637845796047853
1756899358.5285947,1.2313592962196318,0.5726695963877373
1756899358.5286534,1.2313592962196318,0.5691155896745566
1756899358.5286996,1.2313592962196318,0.5780006064575084
1756899358.528788,1.2313592962196318,0.5922166333102316
1756899358.5288367,1.2313592962196318,0.5886626265970507
1756899358.528883,1.2313592962196318,0.5691155896745566
1756899358.5289292,1.2313592962196318,0.5691155896745566
1756899358.5289774,1.2313592962196318,0.6046556568063642
1756899358.5295258,1.2313592962196318,0.654411750790895
1756899358.5295746,1.2313592962196318,0.6792897977831603
1756899358.529622,1.2313592962196318,0.6668507742870277
1756899358.5296702,1.2313592962196318,0.6473037373645334
1756899358.5298667,1.2313592962196318,0.654411750790895
1756899358.5299177,1.2313592962196318,0.6792897977831603
1756899358.5299647,1.2313592962196318,0.6863978112095219
1756899358.530011,1.2313592962196318,0.654411750790895
1756899358.5300577,1.2313592962196318,0.599324646736593
1756899358.5301046,1.2313592962196318,0.5460145460388816
1756899358.5301514,1.2313592962196318,0.5122514822636642
1756899358.530214,1.2313592962196318,0.49803545541094113
1756899358.530261,1.2313592962196318,0.5015894621241219
1756899358.5303078,1.2313592962196318,0.5246905057597969
1756899358.5306864,1.2313592962196318,0.553122559465243
1756899358.5307367,1.2313592962196318,0.5744465997443277
1756899358.5322683,1.2313592962196318,0.5726695963877373
1756899358.5342171,1.2313592962196318,0.5566765661784239
1756899358.53464,1.2313592962196318,0.5495685527520623
1756899358.5346878,1.2313592962196318,0.553122559465243
1756899358.534731,1.2313592962196318,0.5513455561086527
1756899358.5347748,1.2313592962196318,0.5229135024032066
1756899358.5366242,1.2313592962196318,0.47671141513185655
1756899358.5391483,0.5014111998499698,0.47671141513185655
1756899358.5391717,0.5014111998499698,0.437617341286868
1756899358.540561,0.5014111998499698,0.42517831779073534
1756899358.5425265,0.5014111998499698,0.437617341286868
1756899358.5444467,0.5014111998499698,0.44650235806981997
1756899358.5464494,0.5014111998499698,0.4447253547132296
1756899358.5484183,0.5014111998499698,0.4411713480000488
1756899358.550427,0.5014111998499698,0.4447253547132296
1756899358.5536675,0.5014111998499698,0.4589413815659527
1756899358.554382,0.5014111998499698,0.469603401705495
1756899358.5563128,0.5014111998499698,0.46427239163572387
1756899358.5582502,0.5014111998499698,0.43939434464345845
1756899358.5608008,0.5014111998499698,0.40207727415506034
1756899358.5622327,0.5014111998499698,0.37009121373643344
1756899358.564121,0.5014111998499698,0.3629832003100719
1756899358.5708528,0.5014111998499698,0.3878612473023373
1756899358.57113,0.5014111998499698,0.42873232450391613
1756899358.5712209,0.5014111998499698,0.46249538827913345
1756899358.5719616,0.5014111998499698,0.4784884184884469
1756899358.5739386,0.5014111998499698,0.48559643191480845
1756899358.5758812,0.5014111998499698,0.48737343527139887
1756899358.577842,0.5014111998499698,0.4838194285582181
1756899358.579929,0.5014111998499698,0.4749344117752662
1756899358.5840838,0.5014111998499698,0.4713804050620854
1756899358.584139,-0.0589493506503193,0.4713804050620854
1756899358.584175,-0.0589493506503193,0.4838194285582181
1756899358.5858028,-0.0589493506503193,0.506920472193893
1756899358.587679,-0.0589493506503193,0.506920472193893
1756899358.5896864,-0.0589493506503193,0.47315740841867576
1756899358.592053,-0.0589493506503193,0.43939434464345845
1756899358.5935795,-0.0589493506503193,0.4589413815659527
1756899358.59556,-0.0589493506503193,0.530021515829568
1756899358.5975008,-0.0589493506503193,0.5922166333102316
1756899358.5996404,-0.0589493506503193,0.5744465997443277
1756899358.6084695,-0.0589493506503193,0.48559643191480845
1756899358.6088965,-0.0589493506503193,0.4074082842248315
1756899358.6093943,-0.0589493506503193,0.41273929429460265
1756899358.609446,-0.0589493506503193,0.4784884184884469
1756899358.612046,-0.0589493506503193,0.5175824923334353
1756899358.6131516,-0.0589493506503193,0.4749344117752662
1756899358.6136818,-0.0589493506503193,0.38963825065892765
1756899358.6152887,-0.0589493506503193,0.3487671734573488
1756899358.6171932,-0.0589493506503193,0.38963825065892765
1756899358.619228,-0.0589493506503193,0.4607183849225431
1756899358.6212585,-0.0589493506503193,0.48915043862798924
1756899358.6231613,-0.0589493506503193,0.4553873748527719
1756899358.6251402,-0.0589493506503193,0.4091852875814219
1756899358.6270757,-0.0589493506503193,0.3985232674418796
