1756899355.2374787,1.330078125
1756899355.2938206,0.95751953125
1756899355.3358245,0.60107421875
1756899355.3863811,0.1514892578125
1756899355.4342296,-0.0283203125
1756899355.486219,-0.281982421875
1756899355.5341604,-0.6103515625
1756899355.5862691,-0.90966796875
1756899355.6341693,-1.03125
1756899355.6868103,-0.8857421875
1756899355.7342856,-0.580078125
1756899355.789653,-0.07177734375
1756899355.8350148,0.5419921875
1756899355.8865173,0.9013671875
1756899355.9347775,1.083984375
1756899355.990005,1.1044921875
1756899356.034674,0.99072265625
1756899356.0872307,0.8251953125
1756899356.1347275,0.408447265625
1756899356.196624,0.32861328125
1756899356.2393796,-0.050445556640625
1756899356.2872767,-0.34716796875
1756899356.3350482,-0.73193359375
1756899356.390483,-0.91552734375
1756899356.434976,-1.025390625
1756899356.4866047,-1.138671875
1756899356.535964,-0.92236328125
1756899356.586658,-1.1826171875
1756899356.6372023,-1.0498046875
1756899356.6865587,0.12103271484375
1756899356.7379692,1.1181640625
1756899356.7877169,1.2568359375
1756899356.8421712,0.443115234375
1756899356.8867183,-0.01052093505859375
1756899356.9456518,-0.10443115234375
1756899356.9861238,-0.2191162109375
1756899357.038197,-0.44287109375
1756899357.086379,-0.75439453125
1756899357.1607974,-0.97314453125
1756899357.1881225,-1.0703125
1756899357.23858,-0.96923828125
1756899357.289591,-0.43994140625
1756899357.3386219,0.3671875
1756899357.3868635,1.0458984375
1756899357.436036,0.982421875
1756899357.486055,0.09869384765625
1756899357.5355859,-0.37744140625
1756899357.5843534,0.9873046875
1756899357.6356711,1.1318359375
1756899357.6974883,1.06640625
1756899357.738151,0.49755859375
1756899357.7901862,-0.032470703125
1756899357.8390548,-0.2410888671875
1756899357.8867588,-0.363037109375
1756899357.938618,-0.58447265625
1756899357.9871135,-0.80029296875
1756899358.0387814,-0.9453125
1756899358.086662,-0.99072265625
1756899358.169533,-0.99169921875
1756899358.1912863,-1.0146484375
1756899358.2380757,0.242431640625
1756899358.2860527,0.467041015625
1756899358.3384185,0.642578125
1756899358.3860338,1.0703125
1756899358.4381216,0.955078125
1756899358.4866455,0.76171875
1756899358.5391483,0.267822265625
1756899358.584139,-0.111328125
1756899358.6383424,-0.468505859375
1756899358.6843295,-0.8330078125
1756899358.7388048,-0.96533203125
1756899358.7837703,-1.06640625
1756899358.8405638,-0.775390625
1756899358.883872,0.60888671875
1756899358.944175,1.267578125
1756899358.983735,1.146484375
1756899359.0369318,0.73583984375
1756899359.0866818,0.57958984375
1756899359.1389463,0.3603515625
1756899359.1837747,0.0318603515625
1756899359.247203,-0.3349609375
1756899359.297297,-0.55419921875
1756899359.335642,-0.92578125
1756899359.3840191,-1.0732421875
1756899359.439722,-0.81982421875
1756899359.4868526,-0.1527099609375
1756899359.5388613,-0.314697265625
1756899359.5868533,0.8681640625
1756899359.6381323,1.06640625
1756899359.6861553,1.2744140625
1756899359.7379725,1.1767578125
1756899359.7865064,0.7666015625
1756899359.842523,0.3310546875
1756899359.8860245,0.09423828125
1756899359.9378834,-0.2108154296875
1756899359.9861517,-0.61767578125
1756899360.043163,-0.91943359375
1756899360.0911188,-1.064453125
1756899360.137932,-0.98828125
1756899360.200946,-0.7099609375
1756899360.241196,0.00029587745666503906
1756899360.2868636,0.642578125
1756899360.3386455,0.86669921875
1756899360.3869646,0.97216796875
1756899360.439046,0.92626953125
1756899360.4870267,0.61572265625
1756899360.5549572,0.241943359375
1756899360.588115,-0.049896240234375
1756899360.6388133,-0.263671875
1756899360.687151,-0.5791015625
1756899360.7385333,-0.73388671875
1756899360.786593,-0.853515625
1756899360.8385873,-0.85595703125
1756899360.8898275,-0.74951171875
1756899360.9392817,-0.378173828125
1756899360.9876795,-0.1392822265625
1756899361.0386965,-0.327880859375
1756899361.0866065,-0.71826171875
1756899361.13873,-0.853515625
1756899361.1861565,-0.89990234375
1756899361.2397525,-0.6171875
1756899361.283741,-0.391357421875
1756899361.3355136,-0.1024169921875
1756899361.3888183,0.368896484375
1756899361.4514244,0.433837890625
1756899361.4957936,0.63134765625
1756899361.5446615,0.446044921875
1756899361.590147,0.304931640625
1756899361.6376002,0.82177734375
1756899361.6872566,0.908203125
1756899361.7384593,0.5458984375
1756899361.7868388,0.1998291015625
1756899361.8385823,-0.0875244140625
1756899361.8916502,-0.312744140625
1756899361.938878,-0.6533203125
1756899361.9861095,-0.771484375
1756899362.0378695,-0.86669921875
1756899362.085941,-0.85400390625
1756899362.1379588,-0.95654296875
1756899362.1869407,-0.82421875
1756899362.2380593,-0.62890625
1756899362.2879465,0.026031494140625
1756899362.3380797,0.8447265625
1756899362.3997054,0.98876953125
1756899362.4379306,0.74462890625
1756899362.4937265,0.37939453125
1756899362.5378513,0.1922607421875
1756899362.590727,-0.044097900390625
1756899362.638682,-0.358642578125
1756899362.6925426,-0.447998046875
1756899362.7438116,-0.62646484375
1756899362.7982018,-0.69189453125
1756899362.8359838,-0.8876953125
1756899362.890067,-0.92626953125
1756899362.9488297,-0.76708984375
1756899362.9957619,-0.60791015625
1756899363.0436885,-0.7685546875
1756899363.0932865,-0.6943359375
1756899363.1438181,-0.298583984375
1756899363.1910257,0.45068359375
1756899363.24046,0.6201171875
1756899363.2898068,0.331787109375
1756899363.3382816,0.350830078125
1756899363.3908656,0.2122802734375
1756899363.4381855,-0.339599609375
1756899363.4904892,-0.6533203125
1756899363.5379398,-0.7294921875
1756899363.5900257,-0.389404296875
1756899363.6389394,0.30224609375
1756899363.6898658,-0.0809326171875
1756899363.7377877,-0.65087890625
1756899363.789959,-0.7431640625
1756899363.8379533,-0.8564453125
1756899363.8908434,-0.82470703125
1756899363.9381876,0.0189208984375
1756899363.989902,0.7763671875
1756899364.0378668,0.66796875
1756899364.0901346,0.505859375
1756899364.138131,0.32177734375
1756899364.1988037,0.018402099609375
1756899364.238179,-0.4833984375
1756899364.2908654,-0.70068359375
1756899364.3380454,-0.89892578125
1756899364.3909128,-0.92431640625
1756899364.4534853,-0.92333984375
1756899364.4904358,-0.324462890625
1756899364.554325,-0.214111328125
1756899364.5906198,0.482177734375
1756899364.6385965,0.71484375
1756899364.6921132,0.7314453125
1756899364.7404017,0.430908203125
1756899364.7907803,0.17724609375
1756899364.8356352,-0.396484375
1756899364.8880248,-0.6240234375
1756899364.936455,-0.74658203125
1756899364.9896111,-0.494873046875
1756899365.0451033,-0.09912109375
1756899365.093641,-0.1834716796875
1756899365.1454506,-0.307373046875
1756899365.1886861,-0.55126953125
1756899365.235747,-0.3291015625
1756899365.2911403,-0.771484375
1756899365.3424003,-0.95556640625
1756899365.394162,-0.9580078125
1756899365.4409742,-0.362548828125
1756899365.490103,0.3935546875
1756899365.538046,1.0380859375
1756899365.5899625,1.203125
1756899365.6378334,1.0302734375
1756899365.690083,0.57470703125
1756899365.7379992,0.1441650390625
1756899365.789986,-0.50390625
1756899365.8379922,-0.71875
1756899365.8898847,-0.9453125
1756899365.93791,-1.03515625
1756899365.989945,-0.84521484375
1756899366.0380933,-0.51025390625
1756899366.0905035,0.79833984375
1756899366.1384077,0.50634765625
1756899366.1902032,0.84521484375
1756899366.2379591,0.7060546875
1756899366.2901778,0.45556640625
1756899366.3385248,-0.03851318359375
1756899366.3897972,-0.11480712890625
1756899366.438443,-0.2939453125
1756899366.4902165,-0.50341796875
1756899366.5415547,-0.39697265625
1756899366.5899565,-0.6494140625
1756899366.6379895,-0.465576171875
1756899366.6901152,-0.018798828125
1756899366.738824,0.17578125
1756899366.791474,-0.4609375
1756899366.8512113,-0.8564453125
1756899366.893655,-0.72265625
1756899366.9473846,-0.2034912109375
1756899366.9899797,-0.0589599609375
1756899367.0436401,1.0087890625
1756899367.0899768,0.7646484375
1756899367.1385674,-0.07464599609375
1756899367.189763,-0.6494140625
1756899367.2381022,-0.474365234375
1756899367.290183,-0.250244140625
1756899367.3378985,0.7666015625
1756899367.39006,0.6865234375
1756899367.4401095,0.62744140625
1756899367.4914572,0.352783203125
1756899367.543093,0.2301025390625
1756899367.5902917,-0.01959228515625
1756899367.6379876,-0.416748046875
1756899367.6903853,-0.84765625
1756899367.7581983,-1.025390625
1756899367.7903697,-0.875
1756899367.8417795,-0.316162109375
1756899367.890208,-0.81201171875
1756899367.9417472,-0.736328125
1756899367.9902415,0.8935546875
1756899368.0426836,1.224609375
1756899368.0900424,0.4443359375
1756899368.1419644,-0.284423828125
1756899368.1903572,-0.042816162109375
1756899368.24185,-0.396484375
1756899368.2903109,0.65185546875
1756899368.3422885,0.814453125
1756899368.3901746,0.7802734375
1756899368.441829,0.2291259765625
1756899368.4899554,0.1671142578125
1756899368.5419323,-0.2476806640625
1756899368.5939786,-0.74365234375
1756899368.6519127,-0.89208984375
1756899368.691267,-0.548828125
1756899368.7420402,-0.27880859375
1756899368.7904234,-0.6181640625
1756899368.8419912,-0.6103515625
1756899368.8898823,0.0043182373046875
1756899368.9421725,-0.255859375
1756899368.9905322,-0.65771484375
1756899369.0417993,-0.495849609375
1756899369.0957127,0.638671875
1756899369.1420772,-0.2607421875
1756899369.198185,-0.60693359375
1756899369.254067,0.2061767578125
1756899369.2905009,0.96630859375
1756899369.3417335,1.1650390625
1756899369.3907146,0.79345703125
1756899369.4403422,0.61279296875
1756899369.4911427,0.388427734375
1756899369.5429788,-0.1099853515625
1756899369.5887358,-0.428955078125
1756899369.6416435,-0.66357421875
1756899369.690015,-0.74755859375
1756899369.745086,-0.78662109375
1756899369.7899983,-0.72265625
1756899369.841929,-0.51953125
1756899369.8901188,-0.7177734375
1756899369.9419053,-0.787109375
1756899369.9916325,-0.68359375
1756899370.042303,0.019744873046875
1756899370.0909364,0.8837890625
1756899370.1422052,0.8525390625
1756899370.1905174,0.410400390625
1756899370.2424133,0.0914306640625
1756899370.2911472,0.1502685546875
1756899370.3487887,0.1531982421875
1756899370.4087746,-0.08251953125
1756899370.4399004,-0.08380126953125
1756899370.4897974,0.032440185546875
1756899370.5419455,-0.179931640625
1756899370.590454,-0.56689453125
1756899370.6421087,-0.62890625
1756899370.6922338,-0.83349609375
1756899370.741962,-0.243408203125
1756899370.790932,0.494140625
1756899370.8418312,-0.1658935546875
1756899370.890561,-0.63330078125
1756899370.94249,-0.7568359375
1756899370.99156,-0.634765625
1756899371.0432224,-0.9375
1756899371.0902042,-1.0439453125
1756899371.1424322,-0.94873046875
1756899371.1905193,-0.230712890625
1756899371.2428606,0.5244140625
1756899371.2898486,1.1220703125
1756899371.3426297,1.2216796875
1756899371.3900454,1.0966796875
1756899371.4429495,0.79345703125
1756899371.4897656,0.33740234375
1756899371.54167,-0.054473876953125
1756899371.590022,-0.333984375
1756899371.64569,-0.55712890625
1756899371.6899579,-0.62890625
1756899371.7432761,-0.74365234375
1756899371.7913027,-0.80859375
1756899371.842278,-0.79345703125
1756899371.89734,-0.59619140625
1756899371.9424057,-0.50146484375
1756899371.9909608,-0.63818359375
1756899372.0444994,-0.84912109375
1756899372.0903473,-0.92333984375
1756899372.1427948,-0.8056640625
1756899372.1951995,0.4365234375
1756899372.2430658,1.21484375
1756899372.295342,1.1494140625
1756899372.3418458,1.0546875
1756899372.3898833,0.78564453125
1756899372.442463,0.2476806640625
1756899372.4900937,-0.0031909942626953125
1756899372.542383,-0.287353515625
1756899372.5895536,-0.5478515625
1756899372.6423676,-0.73828125
1756899372.6896808,-0.57568359375
1756899372.7423666,-0.2379150390625
1756899372.7902198,-0.5673828125
1756899372.8417044,-0.411865234375
1756899372.890333,0.416748046875
1756899372.9421408,0.006622314453125
1756899372.9899242,-0.705078125
1756899373.0423436,-0.82470703125
1756899373.0899842,-0.95458984375
1756899373.144375,0.232177734375
1756899373.1938071,0.78955078125
1756899373.2419863,1.2216796875
1756899373.2938588,1.0869140625
1756899373.3421884,1.0
1756899373.393894,0.67529296875
1756899373.442918,0.2457275390625
1756899373.4937856,0.056640625
1756899373.541993,0.01345062255859375
1756899373.5959408,0.11407470703125
1756899373.646036,-0.1422119140625
1756899373.6936383,-0.59228515625
1756899373.7420394,-0.7705078125
1756899373.7953093,-0.8310546875
1756899373.8422248,-0.93359375
1756899373.893983,-0.90380859375
1756899373.94216,-0.9072265625
1756899373.997877,-0.41455078125
1756899374.045874,0.04986572265625
1756899374.0960374,0.1319580078125
1756899374.1427467,-0.1756591796875
1756899374.2093186,-0.1617431640625
1756899374.2396872,-0.373291015625
1756899374.2925436,-0.50830078125
1756899374.3403692,-0.224365234375
1756899374.3914108,0.261474609375
1756899374.439818,0.49951171875
1756899374.4915435,0.2841796875
1756899374.541851,-0.390380859375
1756899374.5949693,0.0279083251953125
1756899374.6420414,0.4443359375
1756899374.6954305,0.1883544921875
1756899374.7420087,0.228515625
1756899374.7949002,0.2330322265625
1756899374.8446727,-0.251708984375
1756899374.8937538,-0.50927734375
1756899374.942048,-0.57568359375
1756899374.9938943,-0.50732421875
1756899375.0420594,0.25146484375
1756899375.093695,-0.2900390625
1756899375.1420019,0.46875
1756899375.193628,0.66064453125
1756899375.241825,0.626953125
1756899375.2978356,0.2216796875
1756899375.3418984,-0.38916015625
1756899375.3940349,-0.468994140625
1756899375.4424098,-0.58544921875
1756899375.4940903,-0.77880859375
1756899375.5422592,-0.72314453125
1756899375.5939963,-0.81689453125
1756899375.6417441,-0.884765625
1756899375.6938887,-0.994140625
1756899375.7422204,-1.1328125
1756899375.7940083,-0.97412109375
1756899375.8416355,-0.958984375
1756899375.8946528,-0.94677734375
1756899375.941694,-0.65771484375
1756899375.9964583,-0.79931640625
1756899376.0418847,-0.3427734375
1756899376.1005068,0.685546875
1756899376.1419108,0.9580078125
1756899376.1937149,1.17578125
1756899376.2417903,1.0869140625
1756899376.2939715,0.8974609375
1756899376.341883,0.662109375
1756899376.3938391,0.3310546875
1756899376.4417975,0.147216796875
1756899376.4941125,-0.256103515625
1756899376.5506566,-0.10479736328125
1756899376.5941267,-0.01480865478515625
1756899376.6419322,-0.195556640625
1756899376.6940346,-0.4990234375
1756899376.742007,-0.70751953125
1756899376.7937722,-0.8115234375
1756899376.842779,-0.96875
1756899376.895302,-0.99658203125
1756899376.9394617,-0.958984375
1756899376.9922938,0.010406494140625
1756899377.041623,0.76025390625
1756899377.097221,1.2490234375
1756899377.14037,1.173828125
1756899377.1915157,0.845703125
1756899377.2392905,0.37158203125
1756899377.2960916,0.170654296875
1756899377.3396595,0.1444091796875
1756899377.3922892,0.2117919921875
1756899377.4422343,0.1185302734375
1756899377.4939775,0.022216796875
1756899377.5429463,-0.109130859375
1756899377.5936325,-0.468017578125
1756899377.6419637,-0.75439453125
1756899377.6947923,-0.9658203125
1756899377.7422323,-1.1279296875
1756899377.8032548,-1.212890625
1756899377.8420408,-1.0439453125
1756899377.8939817,-0.51318359375
1756899377.9416122,0.1407470703125
1756899378.00186,0.68212890625
1756899378.051864,0.9443359375
1756899378.0974689,0.90771484375
1756899378.141683,0.73291015625
1756899378.2038243,0.484130859375
1756899378.3416557,0.3203125
1756899378.3935196,0.2166748046875
1756899378.5441015,0.1162109375
1756899378.5923235,0.022979736328125
1756899378.6443484,-0.0830078125
1756899379.7541802,-0.165771484375
1756899380.2935274,-0.322265625
1756899380.4944482,-0.431640625
1756899380.5550594,-0.6328125
1756899380.595945,-0.75634765625
1756899381.2456658,-0.86279296875
1756899381.2936542,-0.85205078125
1756899381.3455405,-0.32666015625
1756899381.3937714,0.446044921875
1756899381.4517107,0.8349609375
1756899381.4944832,0.8798828125
1756899381.5452507,0.80078125
1756899381.5929537,0.482421875
1756899381.647938,0.1962890625
1756899381.6937728,0.00972747802734375
1756899381.7465541,-0.0926513671875
1756899381.793879,-0.042724609375
1756899381.846798,0.01078033447265625
1756899381.8985472,0.1802978515625
1756899381.9465988,0.34033203125
1756899381.991508,0.361328125
1756899382.0453463,0.2381591796875
1756899382.09454,0.0279541015625
1756899382.1453664,-0.07904052734375
1756899382.1929355,-0.22607421875
1756899382.2439961,-0.1549072265625
1756899382.294723,-0.1541748046875
1756899382.3437595,-0.1851806640625
1756899382.404318,-0.394775390625
1756899382.4432323,-0.5888671875
1756899382.4944975,-0.8583984375
1756899382.5449457,-1.00390625
1756899382.6047428,-0.90966796875
1756899382.6442523,-0.99609375
1756899382.6947181,-0.76220703125
1756899382.7451913,0.16748046875
1756899382.7992325,0.53271484375
1756899382.8505116,0.68408203125
1756899382.895257,0.7314453125
1756899382.944792,0.28125
1756899382.9919157,-0.06341552734375
1756899383.0439584,-0.278076171875
1756899383.091223,-0.07489013671875
1756899383.156266,-0.06414794921875
1756899383.1955953,-0.2366943359375
1756899383.246314,-0.09735107421875
1756899383.2941182,0.348388671875
1756899383.3469248,0.359619140625
1756899383.394069,0.08331298828125
1756899383.4598334,-0.352294921875
1756899383.4938958,-0.5859375
1756899383.5458004,-0.82373046875
1756899383.593595,-0.48583984375
1756899383.6472006,-0.60302734375
1756899383.6973183,-0.225830078125
1756899383.7461357,-0.42724609375
1756899383.7948763,-0.302001953125
1756899383.8458207,-0.53369140625
1756899383.893997,-0.30615234375
1756899383.9455354,0.12225341796875
1756899383.9964917,0.07000732421875
1756899384.0435588,0.118408203125
1756899384.0956209,0.1390380859375
1756899384.1437132,-0.0022869110107421875
1756899384.1966918,-0.024200439453125
1756899384.2483819,-0.6318359375
1756899384.2956257,-0.60302734375
1756899384.3457975,-0.70361328125
1756899384.3966968,-0.92431640625
1756899384.4432087,-1.0869140625
1756899384.4951775,-0.2406005859375
1756899384.5457537,0.64111328125
1756899384.5975344,1.1064453125
1756899384.6455219,1.1337890625
1756899384.6976423,1.0078125
1756899384.7455173,0.73974609375
1756899384.8046448,0.3203125
1756899384.8455582,0.1339111328125
1756899384.8976347,0.0305328369140625
1756899384.9454796,-0.0855712890625
1756899384.9977272,-0.18505859375
1756899385.045669,-0.1998291015625
1756899385.0989826,-0.34912109375
1756899385.1463847,-0.5029296875
1756899385.2031908,-0.71728515625
1756899385.2479694,-0.94873046875
1756899385.297417,-1.0966796875
1756899385.346363,-1.20703125
1756899385.3991263,-1.24609375
1756899385.4465668,-1.2763671875
1756899385.49749,-0.46826171875
1756899385.5462067,0.382080078125
1756899385.5977721,1.0478515625
1756899385.645696,1.404296875
1756899385.6990285,1.244140625
1756899385.7455637,0.9482421875
1756899385.7976713,0.517578125
1756899385.8570895,0.25439453125
1756899385.8975842,0.1136474609375
1756899385.9519546,0.0161895751953125
1756899385.9970524,-0.04412841796875
1756899386.0434546,-0.1439208984375
1756899386.099539,-0.278564453125
1756899386.1448383,-0.47412109375
1756899386.1964815,-0.66748046875
1756899386.2438397,-0.84521484375
1756899386.2956254,-0.79833984375
1756899386.3430176,-0.2271728515625
1756899386.3951905,0.1341552734375
1756899386.4436226,0.020355224609375
1756899386.4955316,0.2183837890625
1756899386.5487857,0.09710693359375
1756899386.5970583,0.35595703125
1756899386.6442318,0.358642578125
1756899386.7002718,0.4453125
1756899386.7431986,0.26318359375
1756899386.7967532,0.10919189453125
1756899386.843594,0.0016117095947265625
1756899386.9069827,-0.2919921875
1756899386.9457536,-0.25927734375
1756899386.9992383,-0.41259765625
1756899387.0455089,-0.346923828125
1756899387.0984218,-0.45263671875
1756899387.1461735,-0.5673828125
1756899387.1987755,-0.80419921875
1756899387.2465148,-0.83349609375
1756899387.2979982,-0.95947265625
1756899387.3490496,-0.92138671875
1756899387.398155,-0.18994140625
1756899387.4534109,-0.185546875
1756899387.4977427,0.6787109375
1756899387.5479574,1.119140625
1756899387.597718,1.1650390625
1756899387.657432,0.94482421875
1756899387.698093,0.65625
1756899387.7569497,0.434814453125
1756899387.7990801,0.25634765625
1756899387.8465314,0.1507568359375
1756899387.9029784,0.0257568359375
1756899387.945954,-0.1241455078125
1756899387.9974957,-0.279052734375
1756899388.0468104,-0.432373046875
1756899388.097534,-0.6171875
1756899388.145681,-0.77783203125
1756899388.199609,-0.92529296875
1756899388.245456,-1.041015625
1756899388.2973437,-1.056640625
1756899388.3456888,-0.91796875
1756899388.3982816,-0.97119140625
1756899388.4455795,-0.39404296875
1756899388.4978378,0.329833984375
1756899388.5454404,0.8798828125
1756899388.5976703,1.02734375
1756899388.6457622,0.71533203125
1756899388.697861,0.5185546875
1756899388.7462344,0.376708984375
1756899388.7978196,0.04046630859375
1756899388.8469036,-0.279052734375
1756899388.897354,-0.447509765625
1756899388.9454486,-0.74658203125
1756899388.9976325,-0.8447265625
1756899389.0470355,-1.001953125
1756899389.1016588,-1.080078125
1756899389.151121,-1.072265625
1756899389.1975334,-0.95068359375
1756899389.245668,-0.73583984375
1756899389.29751,-0.6396484375
1756899389.3500633,0.2498779296875
1756899389.3977149,0.70166015625
1756899389.4496439,1.03125
1756899389.4976163,1.044921875
1756899389.558381,0.8642578125
1756899389.5975482,0.63720703125
1756899389.6519685,0.373291015625
1756899389.6976285,0.224609375
1756899389.7496045,0.1455078125
1756899389.7987857,0.08966064453125
1756899389.8494973,-0.07012939453125
1756899389.8975852,-0.254150390625
1756899389.9505568,-0.426025390625
1756899389.9993148,-0.57861328125
1756899390.0552475,-0.7294921875
1756899390.0978658,-0.80126953125
1756899390.150873,-0.794921875
1756899390.2100525,-0.2154541015625
1756899390.2502139,0.07305908203125
1756899390.2994273,0.287841796875
1756899390.3492107,0.45947265625
1756899390.3980784,0.642578125
1756899390.4497652,0.68212890625
1756899390.4974968,0.4619140625
1756899390.5493262,0.307373046875
1756899390.5988054,0.1436767578125
1756899390.649243,-0.0029010772705078125
1756899390.6977117,-0.1351318359375
1756899390.7495635,-0.271240234375
1756899390.8496692,-0.361572265625
1756899390.8978138,-0.456787109375
1756899390.9608276,-0.200927734375
1756899391.0014899,0.30126953125
1756899391.049451,0.69140625
1756899391.0974514,0.86474609375
1756899391.149364,0.8427734375
1756899391.197422,0.666015625
1756899391.2495859,0.393310546875
1756899391.2975416,0.2529296875
1756899391.3496902,0.1781005859375
1756899391.3954184,0.00469207763671875
1756899391.4471388,-0.1656494140625
1756899391.4975226,-0.2587890625
1756899391.5500956,-0.356689453125
1756899391.5978901,-0.432373046875
1756899391.6498446,-0.6103515625
1756899391.698267,-0.84130859375
1756899391.7495546,-0.8173828125
1756899391.7975225,-0.63818359375
1756899391.8529608,-0.5791015625
1756899391.89751,-0.251953125
1756899391.9470487,-0.109130859375
1756899391.9951315,-0.2242431640625
1756899392.050046,-0.407470703125
1756899392.0977232,0.1943359375
1756899392.149565,0.8974609375
1756899392.1978374,1.2314453125
1756899392.2501705,1.1572265625
1756899392.2976115,0.814453125
1756899392.3491592,0.5341796875
1756899392.397625,0.2176513671875
1756899392.4493601,0.0462646484375
1756899392.4986439,-0.05621337890625
1756899392.5507548,-0.11163330078125
1756899392.5988896,-0.11517333984375
1756899392.6525533,-0.2032470703125
1756899392.6991675,-0.3193359375
1756899392.74965,-0.509765625
1756899392.7976863,-0.70458984375
1756899392.8598433,-0.83935546875
1756899392.8991184,-0.79443359375
1756899392.9470062,-0.52880859375
1756899393.006148,-0.81396484375
1756899393.0492535,0.2098388671875
1756899393.0971234,1.03515625
1756899393.1480458,1.2568359375
1756899393.1970196,0.9990234375
1756899393.2496798,0.67529296875
1756899393.297673,0.464111328125
1756899393.3470025,0.197265625
1756899393.396149,-0.12347412109375
1756899393.4529877,-0.236572265625
1756899393.4972131,-0.340087890625
1756899393.5493975,-0.3056640625
1756899393.5963438,-0.509765625
1756899393.6517975,-0.7099609375
1756899393.7000973,-0.8828125
1756899393.7477562,-0.97314453125
1756899393.7974796,-1.064453125
1756899393.8612862,-1.0986328125
1756899393.8962054,-0.97900390625
1756899393.9594967,0.056549072265625
1756899394.0032873,0.9619140625
1756899394.0510972,1.501953125
1756899394.0962963,1.5185546875
1756899394.149024,1.279296875
1756899394.1963665,0.87451171875
1756899394.2498474,0.6044921875
1756899394.29872,0.3564453125
1756899394.349621,0.1806640625
1756899394.3998513,0.087646484375
1756899394.449659,-0.08154296875
1756899394.497593,-0.263427734375
1756899394.5501194,-0.5859375
1756899394.603761,-0.76416015625
1756899394.6498492,-0.91455078125
1756899394.7027707,-1.0205078125
1756899394.7495847,-1.12109375
1756899394.8018115,-1.1328125
1756899394.8506484,-0.27734375
1756899394.9021008,0.9580078125
1756899394.949607,1.42578125
1756899395.0095196,1.4755859375
1756899395.0513525,1.28125
1756899395.101238,0.82861328125
1756899395.1496727,0.468505859375
1756899395.2023108,0.2379150390625
1756899395.2497377,0.07989501953125
1756899395.3026662,0.05633544921875
1756899395.3496795,0.01399993896484375
1756899395.4026685,-0.08087158203125
1756899395.4516668,-0.300537109375
1756899395.5014765,-0.51806640625
1756899395.54959,-0.72021484375
1756899395.6015053,-0.880859375
1756899395.653144,-0.9130859375
1756899395.7023191,-0.452392578125
1756899395.7504575,0.31103515625
1756899395.8038526,0.77880859375
1756899395.849882,0.7705078125
1756899395.9022975,0.58349609375
1756899395.9512386,0.364013671875
1756899396.0019891,0.300048828125
1756899396.0512643,0.3369140625
1756899396.1027021,0.11077880859375
1756899396.1660264,-0.278076171875
1756899396.2099059,-0.50341796875
1756899396.250841,-0.587890625
1756899396.301511,-0.56884765625
1756899396.352074,-0.7783203125
1756899396.4017782,-0.677734375
1756899396.451924,-0.87060546875
1756899396.5022223,-0.9248046875
1756899396.5514805,-0.95703125
1756899396.6078763,-0.9443359375
1756899396.6472492,-0.6533203125
1756899396.7002103,0.1319580078125
1756899396.7507997,0.8857421875
1756899396.8116755,1.3056640625
1756899396.8493512,1.18359375
1756899396.9021387,1.064453125
1756899396.9496393,0.7392578125
1756899397.0049388,0.287841796875
1756899397.0501912,0.169189453125
1756899397.1054356,0.06536865234375
1756899397.149725,-0.004566192626953125
1756899397.202202,-0.1949462890625
1756899397.2505846,-0.50439453125
1756899397.30557,-0.67236328125
1756899397.3513777,-0.8115234375
1756899397.405143,-0.935546875
1756899397.4503565,-0.99169921875
1756899397.501298,-0.9599609375
1756899397.5507758,-0.5703125
1756899397.6020062,-0.251220703125
1756899397.6494272,0.83642578125
1756899397.701434,1.4638671875
1756899397.7498362,1.4716796875
1756899397.8013544,1.2314453125
1756899397.8492258,0.96044921875
1756899397.902017,0.6416015625
1756899397.9494262,0.414794921875
1756899398.0014393,0.2353515625
1756899398.0492914,0.0615234375
1756899398.101437,-0.112548828125
1756899398.1491795,-0.252197265625
1756899398.2063382,-0.55322265625
1756899398.2496517,-0.736328125
1756899398.3015163,-0.87646484375
1756899398.3511357,-0.98974609375
1756899398.4017313,-1.0078125
1756899398.4494991,-0.7578125
1756899398.5014026,-0.51123046875
1756899398.5493217,0.151123046875
1756899398.6018481,0.91796875
1756899398.6524794,1.16015625
1756899398.7058187,1.0791015625
1756899398.7525895,0.7734375
1756899398.8024294,0.4921875
1756899398.8549578,0.3115234375
1756899398.901488,0.085693359375
1756899398.949946,-0.01507568359375
1756899399.0021873,-0.12188720703125
1756899399.05055,-0.367431640625
1756899399.1031277,-0.59765625
1756899399.1500757,-0.74560546875
1756899399.2044284,-0.9228515625
1756899399.2507422,-1.0625
1756899399.3030286,-1.1201171875
1756899399.349607,-0.98974609375
1756899399.402504,-0.7001953125
1756899399.455438,0.2490234375
1756899399.5018008,0.9755859375
1756899399.5498333,1.166015625
1756899399.6015284,1.13671875
1756899399.6493044,0.99560546875
1756899399.7047813,0.73095703125
1756899399.749189,0.431884765625
1756899399.8017144,0.2939453125
1756899399.8499727,0.11370849609375
1756899399.901877,-0.01502227783203125
1756899399.9497955,-0.166015625
1756899400.002333,-0.34423828125
1756899400.0502117,-0.54248046875
1756899400.1031857,-0.69677734375
1756899400.1541817,-0.88037109375
1756899400.2015831,-1.01953125
1756899400.2550285,-1.107421875
1756899400.3014395,-1.1474609375
1756899400.3582904,-0.95947265625
1756899400.402791,-0.234619140625
1756899400.4612465,0.833984375
1756899400.5018632,1.328125
1756899400.5575268,1.2890625
1756899400.6021967,1.11328125
1756899400.656176,0.765625
1756899400.700593,0.578125
1756899400.761682,0.322021484375
1756899400.8011057,0.151123046875
1756899400.8509514,0.048309326171875
1756899400.899054,-0.08502197265625
1756899400.9697213,-0.2340087890625
1756899401.0069704,-0.445556640625
1756899401.051914,-0.68310546875
1756899401.1074426,-0.77587890625
1756899401.1555924,-0.96484375
1756899401.2000225,-1.091796875
1756899401.2516167,-1.1748046875
1756899401.30137,-1.0595703125
1756899401.3565402,-1.00390625
1756899401.4051754,-0.5517578125
1756899401.4567435,0.256591796875
1756899401.5018091,0.97265625
1756899401.5536604,1.39453125
1756899401.6014495,1.412109375
1756899401.6537237,1.2275390625
1756899401.7016385,0.8154296875
1756899401.753379,0.46240234375
1756899401.8017063,0.253662109375
1756899401.8546388,-0.032562255859375
1756899401.9034445,-0.151611328125
1756899401.9541738,-0.2978515625
1756899402.0026224,-0.403564453125
1756899402.0535355,-0.5830078125
1756899402.1013517,-0.65576171875
1756899402.1530905,-0.8037109375
1756899402.201296,-0.9765625
1756899402.2668102,-1.1181640625
1756899402.3012872,-0.66064453125
1756899402.3569937,0.62646484375
1756899402.4014707,1.3291015625
1756899402.4546397,1.3447265625
1756899402.5014274,1.0859375
1756899402.5543742,0.68798828125
1756899402.6014593,0.407958984375
1756899402.66038,0.154052734375
1756899402.7237918,0.038726806640625
1756899402.7535553,-0.12042236328125
1756899402.801911,-0.340576171875
1756899402.8553693,-0.57470703125
1756899402.9031184,-0.71533203125
1756899402.954541,-0.908203125
1756899403.007676,-1.0478515625
1756899403.0533483,-0.96923828125
1756899403.101717,-0.1864013671875
1756899403.1535485,0.55322265625
1756899403.2015944,0.646484375
1756899403.2535377,0.9208984375
1756899403.3026206,0.8349609375
1756899403.3538232,0.3076171875
1756899403.4014757,-0.180419921875
1756899403.454217,0.177734375
1756899403.5014358,0.3642578125
1756899403.553572,0.69189453125
1756899403.6015337,0.48974609375
1756899403.6535082,0.69287109375
1756899403.7013717,0.76953125
1756899403.7535923,0.5732421875
1756899403.802712,0.32177734375
1756899403.8534465,0.128662109375
1756899403.901367,0.018707275390625
1756899403.9541483,-0.258056640625
1756899403.9990935,-0.2646484375
1756899404.0512881,-0.5234375
1756899404.0990055,-0.64453125
1756899404.1540756,-0.796875
1756899404.1990921,-0.96240234375
1756899404.2559032,-1.0791015625
1756899404.3038707,-0.496337890625
1756899404.3569393,0.5107421875
1756899404.4012802,1.169921875
1756899404.453023,1.33203125
1756899404.5013645,1.1416015625
1756899404.553365,0.73291015625
1756899404.6122224,0.375732421875
1756899404.6545017,0.146240234375
1756899404.7012353,-0.098388671875
1756899404.7533948,-0.30224609375
1756899404.8019056,-0.435302734375
1756899404.8535128,-0.6572265625
1756899404.9013915,-0.81298828125
1756899404.9539967,-1.0595703125
1756899405.0014722,-1.2177734375
1756899405.0533996,-1.19140625
1756899405.1019068,-0.73974609375
1756899405.1531937,0.337646484375
1756899405.2018552,1.2314453125
1756899405.2544067,1.4560546875
1756899405.3019364,1.3232421875
1756899405.353896,0.97119140625
1756899405.4027603,0.61669921875
1756899405.4538167,0.345458984375
1756899405.5058916,0.1751708984375
1756899405.5537517,0.06463623046875
1756899405.6131551,-0.00907135009765625
1756899405.6537707,-0.1177978515625
1756899405.705429,-0.321044921875
1756899405.7532928,-0.55224609375
1756899405.805174,-0.7333984375
1756899405.8561497,-0.92431640625
1756899405.9063163,-1.07421875
1756899405.9545128,-1.1494140625
1756899406.0052352,-1.197265625
1756899406.057682,-0.77099609375
1756899406.105332,0.420166015625
1756899406.1532931,1.228515625
1756899406.2052093,1.494140625
1756899406.2531953,1.4013671875
1756899406.3057523,1.1826171875
1756899406.35453,0.7216796875
1756899406.4061425,0.427734375
1756899406.4537332,0.2462158203125
1756899406.5069463,0.09613037109375
1756899406.553637,-0.0704345703125
1756899406.6061168,-0.141357421875
1756899406.658368,-0.444091796875
1756899406.7057135,-0.62744140625
1756899406.7545602,-0.806640625
1756899406.805526,-0.9462890625
1756899406.8539488,-1.048828125
1756899406.905814,-1.1376953125
1756899406.9534123,-0.58056640625
1756899407.0063527,0.8095703125
1756899407.0533705,1.3916015625
1756899407.1052547,1.341796875
1756899407.153315,0.96923828125
1756899407.2056513,0.60595703125
1756899407.2532296,0.323486328125
1756899407.3055985,0.136474609375
1756899407.3535874,-0.0182037353515625
1756899407.4053118,-0.21728515625
1756899407.4530692,-0.29736328125
1756899407.5064442,-0.416259765625
1756899407.5533276,-0.5576171875
1756899407.605497,-0.57470703125
1756899407.6533456,-0.427734375
1756899407.7053547,-0.65771484375
1756899407.75316,-0.5869140625
1756899407.8067849,-0.7080078125
1756899407.856349,-0.82373046875
1756899407.905162,-0.8935546875
1756899407.953157,-0.9296875
1756899408.005592,-1.083984375
1756899408.0542026,-1.1982421875
1756899408.1052637,-0.89501953125
1756899408.1534026,0.0989990234375
1756899408.2050846,0.7822265625
1756899408.2559152,1.3564453125
1756899408.305279,1.4208984375
1756899408.3572948,1.150390625
1756899408.4059792,0.6826171875
1756899408.4547565,0.267822265625
1756899408.5053935,0.07342529296875
1756899408.5568082,-0.011505126953125
1756899408.606132,-0.0689697265625
1756899408.6542003,-0.164306640625
1756899408.7052443,-0.364990234375
1756899408.7534976,-0.5048828125
1756899408.8053427,-0.65869140625
1756899408.8533525,-0.8037109375
1756899408.9057589,-0.89208984375
1756899408.953289,-0.52197265625
1756899409.0060406,0.3681640625
1756899409.053235,1.1103515625
1756899409.1082733,1.1142578125
1756899409.1532037,0.98779296875
1756899409.2050073,0.54052734375
1756899409.2534535,0.252685546875
1756899409.3051016,0.07403564453125
1756899409.3538194,-0.2841796875
1756899409.4056997,-0.397705078125
1756899409.4532216,-0.6552734375
1756899409.5074637,-0.740234375
1756899409.553305,-0.923828125
1756899409.609729,-1.029296875
1756899409.6533895,-1.1640625
1756899409.705022,-1.228515625
1756899409.753372,-0.865234375
1756899409.805935,0.132568359375
1756899409.8636792,0.77392578125
1756899409.9050405,1.2060546875
1756899409.9535775,1.3642578125
1756899410.0051303,1.2822265625
1756899410.0538135,0.96337890625
1756899410.105342,0.406494140625
1756899410.154064,0.229248046875
1756899410.205388,0.1209716796875
1756899410.2534547,-4.291534423828125e-05
1756899410.3050663,-0.0797119140625
1756899410.3530486,-0.1981201171875
1756899410.405238,-0.453125
1756899410.4560995,-0.65966796875
1756899410.5058215,-0.80908203125
1756899410.5530298,-0.9150390625
1756899410.605233,-0.966796875
1756899410.6532276,-1.001953125
1756899410.7055655,-0.88525390625
1756899410.752349,-0.2685546875
1756899410.806197,0.61376953125
1756899410.8588924,1.2255859375
1756899410.9061372,1.357421875
1756899410.9596856,1.2685546875
1756899411.0126727,0.7568359375
1756899411.0583568,0.44384765625
1756899411.1060188,0.2261962890625
1756899411.1582077,0.021026611328125
1756899411.2058666,-0.146728515625
1756899411.2574434,-0.401123046875
1756899411.3355935,-0.5263671875
1756899411.3682177,-0.751953125
1756899411.4138966,-0.8896484375
1756899411.4547172,-1.0751953125
1756899411.5103953,-1.1376953125
1756899411.556043,-0.85888671875
1756899411.6071794,-0.2275390625
1756899411.6551788,0.08502197265625
1756899411.7030475,0.50048828125
1756899411.7547011,1.0517578125
1756899411.810755,1.177734375
1756899411.8560858,1.1748046875
1756899411.903718,0.83837890625
1756899411.9548936,0.41064453125
1756899412.0028322,0.054901123046875
1756899412.0554833,-0.050262451171875
1756899412.1042867,-0.1329345703125
1756899412.1631286,-0.2005615234375
1756899412.206149,-0.255126953125
1756899412.254842,-0.4365234375
1756899412.3053157,-0.5146484375
1756899412.3549101,-0.62841796875
1756899412.4041054,-0.73388671875
1756899412.461437,-0.79931640625
1756899412.505671,-0.78857421875
1756899412.5578303,-0.50439453125
1756899412.6053982,-0.426025390625
1756899412.6581354,0.031219482421875
1756899412.705081,0.3056640625
1756899412.7624075,0.64453125
1756899412.805767,0.73291015625
1756899412.8636615,0.72412109375
1756899412.907576,0.6064453125
1756899412.9575622,0.45654296875
1756899413.0026543,0.318359375
1756899413.0556824,0.1834716796875
1756899413.1074858,-0.07373046875
1756899413.1546106,-0.1741943359375
1756899413.2029586,-0.219970703125
1756899413.2545788,-0.436279296875
1756899413.305449,-0.640625
1756899413.3569605,-0.84130859375
1756899413.4056256,-0.97119140625
1756899413.457583,-0.97998046875
1756899413.5062523,-0.53515625
1756899413.557028,-0.0034637451171875
1756899413.6051555,0.4072265625
1756899413.661794,0.80517578125
1756899413.707946,1.12109375
1756899413.7570887,1.1787109375
1756899413.8050714,1.015625
1756899413.8570302,0.69189453125
1756899413.9049978,0.408447265625
1756899413.9579935,0.15966796875
1756899414.0051117,-0.019256591796875
1756899414.0582695,-0.106689453125
1756899414.1050348,-0.30859375
1756899414.159799,-0.48046875
1756899414.2049782,-0.63671875
1756899414.2569938,-0.74951171875
1756899414.3052635,-0.845703125
1756899414.3620002,-1.009765625
1756899414.4051337,-1.0703125
1756899414.4569888,-1.087890625
1756899414.504975,-0.87890625
1756899414.5765889,-0.9462890625
1756899414.605088,-0.1046142578125
1756899414.6582444,0.27392578125
1756899414.7049167,0.7978515625
1756899414.759119,1.2451171875
1756899414.8051713,1.3486328125
1756899414.857622,1.1953125
1756899414.9056432,0.89306640625
1756899414.9620245,0.443603515625
1756899415.0171397,0.181640625
1756899415.062861,0.021209716796875
1756899415.106729,-0.1571044921875
1756899415.15744,-0.264892578125
1756899415.2063723,-0.52880859375
1756899415.2573469,-0.62451171875
1756899415.3057942,-0.76025390625
1756899415.3576977,-0.7021484375
1756899415.406553,-0.247314453125
1756899415.459682,0.84375
1756899415.5033848,1.2080078125
1756899415.5572948,1.21484375
1756899415.606073,0.828125
1756899415.65697,0.375732421875
1756899415.7051864,0.2257080078125
1756899415.7566466,0.0229644775390625
1756899415.8035457,-0.11004638671875
1756899415.8634174,-0.57373046875
1756899415.9035234,-0.5068359375
1756899415.9546168,-0.7060546875
1756899416.0113497,-0.8564453125
1756899416.0547063,-0.94287109375
1756899416.1028848,-1.04296875
1756899416.1588285,-1.130859375
1756899416.2057643,-1.1376953125
1756899416.258105,-0.6318359375
1756899416.3092325,0.37353515625
1756899416.3583112,1.041015625
1756899416.4093354,1.267578125
1756899416.4582808,1.38671875
1756899416.5091498,1.220703125
1756899416.557348,0.89697265625
1756899416.6090622,0.413330078125
1756899416.659669,0.1513671875
1756899416.7092538,-0.1019287109375
1756899416.7589679,-0.2269287109375
1756899416.8089247,-0.28564453125
1756899416.8580153,-0.364013671875
1756899416.909455,-0.56396484375
1756899416.957821,-0.798828125
1756899417.009343,-1.0537109375
1756899417.0570626,-1.2060546875
1756899417.1090453,-1.0498046875
1756899417.1571062,-0.07208251953125
1756899417.2089145,0.9287109375
1756899417.2570603,1.2607421875
1756899417.3090785,1.265625
1756899417.3571146,1.0771484375
1756899417.4122462,0.85693359375
1756899417.457088,0.47802734375
1756899417.510436,0.20751953125
1756899417.5597253,0.0845947265625
1756899417.6071992,-0.050537109375
1756899417.6547258,-0.1827392578125
1756899417.708738,-0.34033203125
