1756899050.2231262,-264
1756899050.2235196,-320
1756899050.225546,-353
1756899050.2275276,-318
1756899050.2294025,-256
1756899050.2314088,-239
1756899050.233393,-284
1756899050.235417,-338
1756899050.2372139,-344
1756899050.239129,-320
1756899050.2412057,-326
1756899050.2431962,-359
1756899050.24537,-365
1756899050.2471933,-315
1756899050.2492504,-263
1756899050.2511926,-288
1756899050.2531624,-383
1756899050.255127,-457
1756899050.2568839,-437
1756899050.259026,-359
1756899050.2609277,-324
1756899050.262842,-371
1756899050.2649276,-437
1756899050.266678,-440
1756899050.2688673,-374
1756899050.27084,-309
1756899050.272725,-300
1756899050.2747684,-327
1756899050.2767487,-351
1756899050.2788033,-348
1756899050.2810957,-334
1756899050.2827532,-332
1756899050.2847114,-347
1756899050.2867067,-369
1756899050.2886844,-379
1756899050.2905102,-360
1756899050.2924228,-302
1756899050.294387,-233
1756899050.2963583,-194
1756899050.298524,-206
1756899050.3006783,-235
1756899050.3029878,-230
1756899050.3040419,-184
1756899050.306043,-149
1756899050.3080013,-174
1756899050.3099847,-242
1756899050.3121269,-289
1756899050.3139544,-271
1756899050.315916,-233
1756899050.3179429,-247
1756899050.3198678,-324
1756899050.3225873,-409
1756899050.323832,-435
1756899050.3257139,-400
1756899050.3276942,-352
1756899050.3297012,-328
1756899050.3315823,-322
1756899050.3336654,-299
1756899050.3356385,-244
1756899050.337509,-170
1756899050.3394043,-99
1756899050.3413785,-50
1756899050.3433716,-34
1756899050.3452666,-51
1756899050.3472846,-76
1756899050.349192,-87
1756899050.351198,-90
1756899050.3531709,-125
1756899050.3550928,-206
1756899050.3571,-291
1756899050.359067,-321
1756899050.3609862,-290
1756899050.3630905,-264
1756899050.3649628,-296
1756899050.366898,-361
1756899050.3688867,-396
1756899050.3708196,-376
1756899050.372758,-344
1756899050.374788,-342
1756899050.3767602,-359
1756899050.3786852,-380
1756899050.3806877,-417
1756899050.382658,-494
1756899050.3845918,-579
1756899050.3865945,-625
1756899050.3885674,-641
1756899050.3904457,-703
1756899050.3924358,-862
1756899050.3944786,-1053
1756899050.3963218,-1166
1756899050.3983755,-1184
1756899050.4003544,-1190
1756899050.4022775,-1248
1756899050.4043062,-1309
1756899050.406216,-1274
1756899050.4081717,-1135
1756899050.4101753,-982
1756899050.4121451,-880
1756899050.4140382,-782
1756899050.416072,-615
1756899050.4183295,-389
1756899050.4199781,-207
1756899050.4219742,-141
1756899050.4239562,-154
1756899050.4258406,-156
1756899050.4285448,-118
1756899050.4303792,-85
1756899050.432197,-98
1756899050.434136,-131
1756899050.4360235,-129
1756899050.438054,-90
1756899050.439906,-73
1756899050.4415529,-107
1756899050.443504,-160
1756899050.4455633,-168
1756899050.447568,-116
1756899050.4494696,-54
1756899050.4514234,-42
1756899050.453378,-99
1756899050.4552784,-179
1756899050.457335,-204
1756899050.4592805,-133
1756899050.461238,-10
1756899050.4632049,67
1756899050.4651785,36
1756899050.4671555,-59
1756899050.469107,-94
1756899050.471076,-3
1756899050.473105,140
1756899050.4749572,199
1756899050.4769747,114
1756899050.47893,-22
1756899050.4809265,-83
1756899050.482928,-46
1756899050.4848735,2
1756899050.4868329,-19
1756899050.4899848,-87
1756899050.4907823,-126
1756899050.492694,-116
1756899050.4946096,-101
1756899050.4965582,-106
1756899050.498652,-107
1756899050.5005887,-70
1756899050.5025406,-12
1756899050.504543,2
1756899050.506515,-37
1756899050.50844,-73
1756899050.5104647,-49
1756899050.512361,10
1756899050.5143623,28
1756899050.5162842,-32
1756899050.5183108,-111
1756899050.5202463,-128
1756899050.5221872,-67
1756899050.5250592,6
1756899050.5261276,21
1756899050.5281353,-32
1756899050.530117,-96
1756899050.5321345,-118
1756899050.53397,-108
1756899050.5360038,-109
1756899050.537997,-140
1756899050.5398629,-176
1756899050.541854,-173
1756899050.5438905,-123
1756899050.545825,-57
1756899050.5478117,-17
1756899050.5497453,-23
1756899050.551678,-61
1756899050.5537076,-96
1756899050.55562,-102
1756899050.5576231,-94
1756899050.5595942,-95
1756899050.5614827,-116
1756899050.5635197,-140
1756899050.565496,-136
1756899050.5673907,-100
1756899050.5694196,-56
1756899050.5714018,-32
1756899050.5733154,-27
1756899050.5753164,-19
1756899050.577375,-2
1756899050.5792494,4
1756899050.581198,-31
1756899050.5831435,-98
1756899050.5851457,-162
1756899050.5871158,-196
1756899050.5890973,-194
1756899050.5910199,-172
1756899050.5929582,-147
1756899050.594981,-127
1756899050.596917,-116
1756899050.5988586,-113
1756899050.6008818,-110
1756899050.6028183,-95
1756899050.6048095,-70
1756899050.60679,-55
1756899050.6087167,-78
1756899050.610669,-130
1756899050.6126883,-171
1756899050.6147275,-169
1756899050.6166143,-128
1756899050.6185899,-83
1756899050.6204722,-70
1756899050.6225162,-96
1756899050.6244245,-145
1756899050.626451,-185
1756899050.6283815,-198
1756899050.6303306,-182
1756899050.6323252,-164
1756899050.6342607,-164
1756899050.63627,-177
1756899050.6382074,-185
1756899050.6401515,-182
1756899050.6421714,-181
1756899050.6440516,-185
1756899050.646094,-175
1756899050.6480782,-143
1756899050.649981,-115
1756899050.6519945,-140
1756899050.653985,-216
1756899050.6558878,-268
1756899050.657797,-238
1756899050.6598265,-163
1756899050.6618326,-152
1756899050.6637578,-241
1756899050.6658387,-343
1756899050.6676743,-339
1756899050.6696393,-233
1756899050.6716597,-166
1756899050.6735935,-248
1756899050.675542,-432
1756899050.6775055,-560
1756899050.6794374,-537
1756899050.6814861,-435
1756899050.6834252,-392
1756899050.685362,-454
1756899050.6873503,-537
1756899050.6893036,-529
1756899050.6913078,-429
1756899050.6932294,-333
1756899050.695207,-333
1756899050.6971927,-416
1756899050.6991365,-493
1756899050.7011526,-498
1756899050.7030401,-458
1756899050.7050924,-454
1756899050.7070105,-519
1756899050.7090163,-604
1756899050.711025,-636
1756899050.7129605,-601
1756899050.7149997,-554
1756899050.7168322,-550
1756899050.7190356,-582
1756899050.720869,-596
1756899050.7230158,-564
1756899050.7247481,-519
1756899050.727362,-503
1756899050.728631,-518
1756899050.7306104,-534
1756899050.7327366,-529
1756899050.7345486,-513
1756899050.7364926,-507
1756899050.7384508,-509
1756899050.7404437,-505
1756899050.7423944,-488
1756899050.7444062,-469
1756899050.7463133,-460
1756899050.7482994,-470
1756899050.750242,-498
1756899050.752266,-543
1756899050.754236,-582
1756899050.7561226,-590
1756899050.7580843,-562
1756899050.7600958,-524
1756899050.7620876,-506
1756899050.7640607,-515
1756899050.7660127,-529
1756899050.76812,-522
1756899050.7699172,-491
1756899050.77193,-453
1756899050.7738829,-427
1756899050.7758207,-432
1756899050.7777827,-467
1756899050.7797422,-500
1756899050.7817135,-496
1756899050.7836854,-450
1756899050.785693,-412
1756899050.787653,-423
1756899050.7895875,-467
1756899050.7916703,-481
1756899050.7935064,-438
1756899050.795658,-390
1756899050.7974331,-393
1756899050.7994564,-446
1756899050.801373,-493
1756899050.8033402,-498
1756899050.8053482,-489
1756899050.8072827,-500
1756899050.809335,-520
1756899050.811203,-510
1756899050.8132324,-479
1756899050.8151398,-472
1756899050.8171723,-496
1756899050.8190703,-510
1756899050.821052,-476
1756899050.8229992,-432
1756899050.824965,-442
1756899050.826968,-512
1756899050.8289008,-576
1756899050.8310213,-579
1756899050.8328218,-541
1756899050.8350317,-526
1756899050.8367882,-556
1756899050.838965,-592
1756899050.84066,-595
1756899050.8427162,-574
1756899050.8483179,-556
1756899050.8538435,-554
1756899050.8540447,-541
1756899050.8542411,-497
1756899050.8544364,-450
1756899050.85835,-432
1756899050.8585517,-443
1756899050.8587468,-455
1756899050.8603313,-454
1756899050.86231,-449
1756899050.8643296,-474
1756899050.8663144,-524
1756899050.8681793,-556
1756899050.8701866,-536
1756899050.8721602,-489
1756899050.874111,-477
1756899050.8761382,-526
1756899050.8780456,-577
1756899050.8800116,-560
1756899050.882098,-490
1756899050.8839562,-463
1756899050.885949,-545
1756899050.8878822,-668
1756899050.8898408,-703
1756899050.8918068,-615
1756899050.893861,-519
1756899050.895789,-541
1756899050.8976707,-656
1756899050.899671,-719
1756899050.9017067,-635
1756899050.9036806,-481
1756899050.905617,-409
1756899050.9077008,-470
1756899050.9095392,-576
1756899050.9116423,-605
1756899050.9134457,-533
1756899050.915397,-430
1756899050.9174109,-375
1756899050.9194283,-398
1756899050.9212599,-469
1756899050.9232621,-549
1756899050.9252834,-596
1756899050.9271793,-588
1756899050.9292057,-549
1756899050.9311402,-532
1756899050.933277,-567
1756899050.9350705,-636
1756899050.9371073,-687
1756899050.9390879,-686
1756899050.9409626,-642
1756899050.943045,-586
1756899050.944935,-541
1756899050.9471784,-517
1756899050.9488726,-520
1756899050.9569056,-545
1756899050.957136,-570
1756899050.9573345,-579
1756899050.9575317,-574
1756899050.9586515,-573
1756899050.9606256,-592
1756899050.9625812,-620
1756899050.9645672,-630
1756899050.9665499,-614
1756899050.9703324,-588
1756899050.9705775,-580
1756899050.9724305,-591
1756899050.9745882,-604
1756899050.9764142,-594
1756899050.9783313,-567
1756899050.9802914,-556
1756899050.9822583,-584
1756899050.9843495,-636
1756899050.9862294,-665
1756899050.9923906,-647
1756899050.9926276,-607
1756899050.9928293,-587
1756899050.9941306,-599
1756899050.9960272,-617
1756899050.9979777,-627
1756899050.9999938,-640
1756899051.0019276,-658
1756899051.0039003,-651
1756899051.0058482,-588
1756899051.0078123,-502
1756899051.0097704,-462
1756899051.011757,-491
1756899051.0137172,-532
1756899051.0156727,-500
1756899051.0176406,-390
1756899051.024859,-289
1756899051.0250967,-272
1756899051.025328,-318
1756899051.0271597,-354
1756899051.029007,-349
1756899051.029384,-344
1756899051.0923843,-390
1756899051.0926325,-472
1756899051.0928621,-527
1756899051.0930645,-522
1756899051.1081638,-493
1756899051.1084538,-493
1756899051.1106231,-525
1756899051.1161036,-542
1756899051.1163545,-506
1756899051.116564,-446
1756899051.116767,-408
1756899051.1169662,-408
1756899051.1171927,-414
1756899051.1173964,-397
1756899051.1175935,-370
1756899051.1178482,-359
1756899051.1180477,-363
1756899051.118244,-350
1756899051.1184404,-309
1756899051.1186357,-269
1756899051.1188323,-273
1756899051.1190293,-323
1756899051.1192253,-382
1756899051.1194212,-415
1756899051.1196187,-423
1756899051.1199076,-437
1756899051.1220436,-472
1756899051.122253,-524
1756899051.1224923,-572
1756899051.1226907,-600
1756899051.1230469,-608
1756899051.126125,-607
1756899051.1261847,-625
1756899051.1262288,-692
1756899051.126271,-806
1756899051.1263137,-928
1756899051.1263556,-1025
1756899051.1268322,-1113
1756899051.127199,-1232
1756899051.127244,-1384
1756899051.1272864,-1507
1756899051.1273284,-1523
1756899051.1273696,-1437
1756899051.1276007,-1319
1756899051.1276448,-1227
1756899051.127754,-1139
1756899051.1279607,-994
1756899051.1280046,-780
1756899051.1282358,-559
1756899051.1282785,-405
1756899051.1295295,-326
1756899051.1315095,-274
1756899051.1334708,-210
1756899051.1545672,-146
1756899051.163317,-128
1756899051.1643443,-165
1756899051.165019,-224
1756899051.1660078,-254
1756899051.1662946,-243
1756899051.1664176,-233
1756899051.1665363,-264
1756899051.1666577,-328
1756899051.167031,-361
1756899051.167249,-305
1756899051.1673734,-185
1756899051.167582,-99
1756899051.1677008,-129
1756899051.1678195,-229
1756899051.1712053,-270
1756899051.1718824,-178
1756899051.1722577,-42
1756899051.1725187,-18
1756899051.1729941,-149
1756899051.1749055,-307
1756899051.176762,-344
1756899051.178717,-254
1756899051.180941,-169
1756899051.1830735,-175
1756899051.1848676,-237
1756899051.1866598,-256
1756899051.1890662,-209
1756899051.191907,-154
1756899051.200754,-158
1756899051.200871,-212
1756899051.2009478,-261
1756899051.201025,-268
1756899051.2011,-242
1756899051.2023482,-221
1756899051.2064567,-232
1756899051.2069094,-269
1756899051.2102711,-291
1756899051.210663,-240
1756899051.2124786,-111
1756899051.2193797,20
1756899051.2200172,41
1756899051.2207615,-93
1756899051.222584,-289
1756899051.223752,-391
1756899051.2326295,-344
1756899051.2333913,-244
1756899051.2336223,-239
1756899051.23386,-362
1756899051.2349682,-501
1756899051.2359717,-516
1756899051.23625,-394
1756899051.2416089,-254
1756899051.2419357,-209
1756899051.24214,-255
1756899051.2485797,-308
1756899051.2489,-309
1756899051.2492025,-290
1756899051.2499137,-302
1756899051.2577984,-343
1756899051.2581556,-359
1756899051.2583609,-335
1756899051.2591052,-306
1756899051.2594743,-313
1756899051.261361,-332
1756899051.263343,-313
1756899051.265515,-254
1756899051.2673512,-226
1756899051.2695727,-281
1756899051.2713819,-375
1756899051.273058,-415
1756899051.2750473,-378
1756899051.2771363,-347
1756899051.2790394,-395
1756899051.2831848,-483
1756899051.2834623,-499
1756899051.2864547,-397
1756899051.2869496,-255
1756899051.289037,-187
1756899051.2912166,-215
1756899051.2989566,-267
1756899051.299272,-273
1756899051.29973,-241
1756899051.3005183,-226
1756899051.3007243,-259
1756899051.3026717,-311
1756899051.3047042,-353
1756899051.3120944,-397
1756899051.312315,-455
1756899051.3125124,-499
1756899051.3127074,-471
1756899051.3144853,-364
1756899051.3164325,-263
1756899051.3185449,-263
1756899051.320424,-362
1756899051.3223794,-449
1756899051.324388,-422
1756899051.3262806,-312
1756899051.3289263,-255
1756899051.3305366,-336
1756899051.3356326,-491
1756899051.3358552,-566
1756899051.3360934,-487
1756899051.3382647,-334
1756899051.3401093,-242
1756899051.3420382,-257
1756899051.3440108,-309
1756899051.3460393,-314
1756899051.3483033,-269
1756899051.3498979,-236
1756899051.3552952,-269
1756899051.355534,-353
1756899051.355768,-419
1756899051.3578608,-425
1756899051.366767,-391
1756899051.3669915,-376
1756899051.3672283,-401
1756899051.3674333,-434
1756899051.367674,-434
1756899051.3722413,-406
1756899051.372451,-400
1756899051.390082,-434
1756899051.3907485,-483
1756899051.3909607,-502
1756899051.3911715,-496
1756899051.3913689,-518
1756899051.3917074,-573
1756899051.3919747,-600
1756899051.392212,-551
1756899051.3926737,-475
1756899051.3936148,-468
1756899051.393966,-554
1756899051.3965755,-643
1756899051.397087,-641
1756899051.4003904,-572
1756899051.401045,-539
1756899051.4030404,-599
1756899051.4049904,-689
1756899051.4171178,-710
1756899051.4182222,-647
1756899051.418428,-574
1756899051.4186265,-561
1756899051.418823,-600
1756899051.41902,-636
1756899051.419215,-640
1756899051.4206645,-630
1756899051.422665,-634
1756899051.4255884,-638
1756899051.4268394,-617
1756899051.4314156,-579
1756899051.4320257,-547
1756899051.432478,-545
1756899051.4344432,-560
1756899051.4363816,-560
1756899051.438358,-532
1756899051.4405818,-502
1756899051.4430206,-505
1756899051.4450927,-552
1756899051.447012,-606
1756899051.448184,-622
1756899051.450195,-592
1756899051.4521644,-556
1756899051.454304,-548
1756899051.4564395,-564
1756899051.4581015,-565
1756899051.460086,-531
1756899051.4620252,-490
1756899051.464316,-479
1756899051.4676104,-496
1756899051.4714959,-499
1756899051.4717095,-466
1756899051.4719937,-432
1756899051.474372,-455
1756899051.4756584,-529
1756899051.47794,-575
1756899051.4847395,-543
1756899051.4856808,-473
1756899051.4894238,-462
1756899051.4897227,-536
1756899051.4899213,-615
1756899051.4901218,-610
1756899051.4915383,-524
1756899051.493806,-455
1756899051.495377,-464
1756899051.4974353,-517
1756899051.499384,-531
1756899051.5013618,-476
1756899051.5032892,-406
1756899051.5052545,-387
1756899051.5100946,-432
1756899051.5109117,-496
1756899051.511305,-523
1756899051.5191023,-493
1756899051.5195456,-431
1756899051.5197453,-377
1756899051.51995,-359
1756899051.5209277,-373
1756899051.5229387,-388
1756899051.5249567,-374
1756899051.5271137,-335
1756899051.5288448,-317
1756899051.5349977,-361
1756899051.5354054,-455
1756899051.535617,-538
1756899051.5366313,-560
1756899051.539023,-527
1756899051.5406342,-497
1756899051.5445507,-511
1756899051.5451775,-546
1756899051.572343,-545
1756899051.5725849,-494
1756899051.5727854,-438
1756899051.5729809,-415
1756899051.574195,-404
1756899051.5743978,-361
1756899051.5745945,-293
1756899051.574791,-274
1756899051.5749862,-347
1756899051.575181,-460
1756899051.5753765,-504
1756899051.5755723,-442
1756899051.5757666,-358
1756899051.5759623,-363
1756899051.576157,-460
1756899051.5763514,-545
1756899051.5780282,-538
1756899051.5800557,-466
1756899051.584801,-413
1756899051.5850618,-415
1756899051.5858195,-438
1756899051.5878527,-437
1756899051.5898287,-413
1756899051.5920587,-398
1756899051.5939965,-405
1756899051.5957656,-418
1756899051.5977924,-424
1756899051.5996945,-424
1756899051.6021664,-429
1756899051.6035028,-452
1756899051.6055176,-492
1756899051.6075506,-529
1756899051.609682,-531
1756899051.6125317,-485
1756899051.6133888,-418
1756899051.6159663,-381
1756899051.617581,-393
1756899051.619225,-414
1756899051.621407,-388
1756899051.6232126,-317
1756899051.6318464,-263
1756899051.6321814,-271
1756899051.632778,-322
1756899051.646901,-366
1756899051.6471992,-400
1756899051.6474056,-459
1756899051.6476035,-552
1756899051.65037,-629
1756899051.656009,-647
1756899051.656381,-616
1756899051.6567385,-586
1756899051.6570265,-574
1756899051.6573966,-540
1756899051.6577384,-455
1756899051.6589944,-367
1756899051.6645555,-355
1756899051.664787,-427
1756899051.6649837,-500
1756899051.6651788,-500
1756899051.6653745,-455
1756899051.6655712,-453
1756899051.6665049,-543
1756899051.6684933,-663
1756899051.6704402,-709
1756899051.674034,-643
1756899051.6743023,-527
1756899051.676454,-437
1756899051.6784933,-393
1756899051.6854274,-364
1756899051.6860588,-323
1756899051.6864774,-280
1756899051.6867592,-257
1756899051.6881328,-258
1756899051.6901095,-278
1756899051.692083,-316
1756899051.6992633,-370
1756899051.7000504,-417
1756899051.7004292,-430
1756899051.7007427,-413
1756899051.7019277,-404
1756899051.7038612,-425
1756899051.705788,-451
1756899051.7077637,-444
1756899051.7097251,-399
1756899051.7227404,-353
1756899051.7303824,-334
1756899051.7307136,-336
1756899051.7312846,-338
1756899051.731592,-335
1756899051.7319038,-327
1756899051.7322106,-314
1756899051.7325268,-297
1756899051.732846,-294
1756899051.7377458,-322
1756899051.7380373,-362
1756899051.7383108,-368
1756899051.7385116,-321
1756899051.7390819,-275
1756899051.7394419,-280
1756899051.7413042,-315
1756899051.7472515,-311
1756899051.7478693,-241
1756899051.7484999,-169
1756899051.7589989,-176
1756899051.7596462,-252
1756899051.7598584,-308
1756899051.7600572,-284
1756899051.7602541,-208
1756899051.7604837,-166
1756899051.7641268,-200
1756899051.7643776,-279
1756899051.764695,-343
1756899051.7669199,-354
1756899051.76872,-316
1756899051.770742,-275
1756899051.7726724,-282
1756899051.774652,-349
1756899051.7765753,-429
1756899051.7785525,-464
1756899051.803202,-454
1756899051.804609,-471
1756899051.8190706,-586
1756899051.8194735,-772
1756899051.819809,-926
1756899051.8201442,-983
1756899051.8205175,-998
1756899051.820854,-1076
1756899051.8239467,-1245
1756899051.825867,-1412
1756899051.8264437,-1457
1756899051.8267896,-1354
1756899051.8269892,-1183
1756899051.827211,-1045
1756899051.8274078,-965
1756899051.827604,-878
1756899051.8278217,-715
1756899051.8281183,-483
1756899051.828832,-262
1756899051.8296165,-135
1756899051.830084,-116
1756899051.8332257,-140
1756899051.833629,-146
1756899051.833855,-134
1756899051.834053,-149
1756899051.834252,-207
1756899051.8344479,-252
1756899051.8346446,-220
1756899051.8354955,-128
1756899051.8376703,-65
1756899051.8396957,-94
1756899051.8432384,-168
1756899051.843488,-188
1756899051.8454797,-137
1756899051.8474085,-96
1756899051.8499374,-138
1756899051.8551753,-225
1756899051.8673952,-256
1756899051.8676336,-205
1756899051.867833,-148
1756899051.8680298,-163
1756899051.8682263,-207
1756899051.8684232,-185
1756899051.8686182,-82
1756899051.8688314,-2
1756899051.8784435,-48
1756899051.878683,-193
1756899051.8788414,-307
1756899051.8790495,-301
1756899051.8792102,-217
1756899051.8793652,-171
1756899051.8809772,-226
1756899051.8831322,-329
1756899051.8848627,-370
1756899051.8867145,-301
1756899051.8886852,-189
1756899051.890669,-150
1756899051.8925743,-221
1756899051.8946335,-328
1756899051.8965883,-370
1756899051.900887,-323
1756899051.9030914,-266
1756899051.90334,-268
1756899051.904884,-299
1756899051.9070292,-274
1756899051.908504,-180
1756899051.910271,-99
1756899051.9122171,-111
1756899051.9141855,-190
1756899051.9163346,-245
1756899051.918099,-237
1756899051.92021,-215
1756899051.9221125,-248
1756899051.9241197,-317
1756899051.9262137,-349
1756899051.928021,-312
1756899051.9298906,-248
1756899051.931876,-212
1756899051.9338596,-213
1756899051.9380386,-217
1756899051.9382226,-207
1756899051.9397578,-201
1756899051.941826,-222
1756899051.9443831,-269
1756899051.9458072,-327
1756899051.947564,-382
1756899051.9495807,-426
1756899051.9515529,-451
1756899051.9537976,-444
1756899051.9556444,-409
1756899051.957469,-371
1756899051.9596057,-350
1756899051.9617968,-353
1756899051.9652648,-356
1756899051.9653575,-335
1756899051.9671671,-290
1756899051.9690726,-250
1756899051.9717512,-259
1756899051.9730935,-309
1756899051.9750555,-345
1756899051.9772513,-320
1756899051.9789743,-256
1756899051.980946,-225
1756899051.983156,-267
1756899051.9848058,-343
1756899051.9870315,-378
1756899051.9889889,-362
1756899051.9909925,-349
1756899051.9954395,-386
1756899051.9955559,-443
1756899051.9966698,-460
1756899051.9987538,-427
1756899052.0012848,-388
1756899052.0025852,-385
1756899052.0051494,-399
1756899052.0081983,-391
1756899052.0091772,-356
1756899052.0110009,-326
1756899052.0124133,-322
1756899052.0144196,-336
1756899052.0163097,-359
1756899052.0182385,-388
1756899052.0202549,-415
1756899052.0221906,-419
1756899052.0242822,-388
1756899052.0261624,-354
1756899052.028093,-366
1756899052.0300412,-421
1756899052.0330632,-463
1756899052.0340486,-445
1756899052.0382688,-399
1756899052.0401,-394
1756899052.0402164,-460
1756899052.0418742,-546
1756899052.0438542,-572
1756899052.045972,-522
1756899052.0478504,-462
1756899052.049718,-460
1756899052.051772,-519
1756899052.053627,-570
1756899052.0575664,-554
1756899052.0577343,-487
1756899052.059502,-443
1756899052.06148,-459
1756899052.0634415,-498
1756899052.0653992,-499
1756899052.0674348,-454
1756899052.0693762,-417
1756899052.0714474,-432
1756899052.0732694,-484
1756899052.0755723,-517
1756899052.0780797,-513
1756899052.079204,-505
1756899052.081331,-538
1756899052.0832624,-603
1756899052.0851202,-651
1756899052.0872183,-648
1756899052.0890567,-607
1756899052.0910225,-575
1756899052.0931501,-594
1756899052.0951045,-647
1756899052.0970972,-685
1756899052.0990999,-673
1756899052.1010437,-623
1756899052.1030035,-585
1756899052.1050804,-601
1756899052.107058,-665
1756899052.1088698,-719
1756899052.112359,-723
1756899052.1133065,-680
1756899052.1324196,-626
1756899052.1325624,-599
1756899052.1326532,-602
1756899052.1327226,-613
1756899052.1328657,-603
1756899052.132934,-563
1756899052.1329958,-513
1756899052.1330707,-484
1756899052.133263,-494
1756899052.1333444,-524
1756899052.1349595,-528
1756899052.1381693,-486
1756899052.1382692,-431
1756899052.1401327,-423
1756899052.150563,-479
1756899052.1507463,-553
1756899052.152466,-587
1756899052.1525471,-579
1756899052.1525953,-575
1756899052.1526783,-606
1756899052.1540682,-637
1756899052.1562889,-613
1756899052.160384,-528
1756899052.1606908,-436
1756899052.1617637,-397
1756899052.164091,-418
1756899052.1658132,-451
1756899052.167831,-454
1756899052.1697023,-436
1756899052.1719282,-444
1756899052.173567,-509
1756899052.175739,-624
1756899052.1777585,-741
1756899052.1806312,-792
1756899052.1817987,-744
1756899052.1835144,-626
1756899052.1869588,-517
1756899052.187788,-489
1756899052.1894636,-530
1756899052.1936526,-563
1756899052.1939662,-525
1756899052.1953063,-435
1756899052.1973853,-383
1756899052.1993363,-441
1756899052.2015328,-588
1756899052.203232,-724
1756899052.2053885,-760
1756899052.2072058,-698
1756899052.2092047,-613
1756899052.2118912,-576
1756899052.2129805,-585
1756899052.2171106,-585
1756899052.2172704,-539
1756899052.2208111,-471
1756899052.220965,-443
1756899052.2227895,-475
1756899052.224828,-528
1756899052.2266924,-547
1756899052.228744,-524
1756899052.2333083,-502
1756899052.2333715,-522
1756899052.2350442,-565
1756899052.2367287,-591
1756899052.2409034,-581
1756899052.2431905,-550
1756899052.243568,-524
1756899052.244553,-504
1756899052.2464473,-493
1756899052.2492852,-507
1756899052.2506845,-552
1756899052.2524235,-609
1756899052.2544775,-639
1756899052.256519,-626
1756899052.2583442,-594
1756899052.260204,-587
1756899052.2622375,-620
1756899052.2642362,-675
1756899052.2661881,-716
1756899052.269146,-720
1756899052.27059,-674
1756899052.2724004,-579
1756899052.275718,-477
1756899052.2864735,-439
1756899052.2871337,-490
1756899052.2873492,-572
1756899052.2895331,-589
1756899052.2902293,-500
1756899052.290459,-383
1756899052.2906587,-362
1756899052.292098,-481
1756899052.2930443,-658
1756899052.295041,-762
1756899052.295642,-734
1756899052.297828,-635
1756899052.3002615,-570
1756899052.3015537,-585
1756899052.3038943,-636
1756899052.3054848,-643
1756899052.3075426,-578
1756899052.3096638,-482
1756899052.3177922,-423
1756899052.3180423,-424
1756899052.3182404,-453
1756899052.3184361,-473
1756899052.3193693,-484
1756899052.3212438,-504
1756899052.3232222,-534
1756899052.3251765,-552
1756899052.3277795,-543
1756899052.3320315,-522
1756899052.332617,-521
1756899052.332968,-546
1756899052.3708441,-569
1756899052.3710692,-571
1756899052.3712656,-554
1756899052.3714628,-538
1756899052.371659,-531
1756899052.3718545,-530
1756899052.3720503,-531
1756899052.3722763,-532
1756899052.372474,-541
1756899052.372672,-561
1756899052.37287,-585
1756899052.3730671,-588
1756899052.375325,-557
1756899052.375635,-511
1756899052.3969626,-502
1756899052.3970869,-556
1756899052.3974667,-632
1756899052.398365,-656
1756899052.398438,-608
1756899052.3984823,-547
1756899052.398524,-545
1756899052.3985658,-606
1756899052.398608,-662
1756899052.3986528,-655
1756899052.3987,-593
1756899052.399033,-530
1756899052.3990796,-500
1756899052.399233,-495
1756899052.3992853,-483
1756899052.3994434,-457
1756899052.3994887,-435
1756899052.3995297,-431
1756899052.3995726,-448
1756899052.3996542,-467
1756899052.4233353,-463
1756899052.4235327,-431
1756899052.4238453,-407
1756899052.4239125,-429
1756899052.4239712,-489
1756899052.4240303,-532
1756899052.424087,-511
1756899052.4241447,-444
1756899052.4242017,-400
1756899052.4242773,-426
1756899052.4243357,-491
1756899052.4243922,-536
1756899052.425268,-537
1756899052.427175,-528
1756899052.4291487,-549
1756899052.4311106,-582
1756899052.438381,-585
1756899052.4386852,-538
1756899052.4389431,-480
1756899052.4393165,-461
1756899052.4413137,-484
1756899052.4431627,-494
1756899052.4641745,-458
1756899052.4644055,-401
1756899052.4646206,-381
1756899052.4648178,-422
1756899052.4653523,-484
1756899052.4655542,-507
1756899052.4657507,-474
1756899052.465946,-418
1756899052.4661405,-381
1756899052.4663377,-365
1756899052.4665368,-343
1756899052.4667332,-309
1756899052.4694078,-289
1756899052.4911122,-307
1756899052.491358,-352
1756899052.4915583,-397
1756899052.491757,-431
1756899052.4919522,-473
1756899052.492149,-540
1756899052.492346,-615
1756899052.492542,-668
1756899052.4927382,-695
1756899052.4929345,-739
1756899052.4931297,-839
1756899052.4933255,-977
1756899052.4946072,-1095
1756899052.496407,-1159
1756899052.498318,-1209
1756899052.500171,-1307
1756899052.5020602,-1457
1756899052.5039773,-1579
1756899052.5060267,-1588
1756899052.5079596,-1469
1756899052.5100293,-1286
1756899052.512555,-1123
1756899052.5139387,-1006
1756899052.515772,-903
1756899052.517751,-767
1756899052.5196824,-596
1756899052.5218022,-445
1756899052.5236852,-369
1756899052.525972,-361
1756899052.5278947,-365
1756899052.5296023,-339
1756899052.5327823,-295
1756899052.5334766,-268
1756899052.536787,-260
1756899052.5375316,-236
1756899052.5415184,-177
1756899052.5417511,-142
1756899052.5433726,-193
1756899052.5453217,-303
1756899052.547236,-365
1756899052.5496147,-314
1756899052.5510638,-213
1756899052.5532465,-188
1756899052.5551834,-273
1756899052.5579176,-365
1756899052.561092,-348
1756899052.5612142,-229
1756899052.5629234,-134
1756899052.564953,-156
1756899052.5671902,-256
1756899052.5690958,-320
1756899052.577707,-288
1756899052.5780187,-220
1756899052.5782416,-210
1756899052.5782983,-277
1756899052.5797687,-335
1756899052.5806658,-305
1756899052.5826414,-223
1756899052.5847228,-189
1756899052.5866013,-243
1756899052.5885274,-309
1756899052.5908692,-278
1756899052.5927136,-155
1756899052.5993931,-78
1756899052.599969,-138
1756899052.600382,-273
1756899052.6014903,-327
1756899052.6022632,-244
1756899052.604238,-133
1756899052.6062179,-125
1756899052.6081786,-215
1756899052.6101825,-293
1756899052.6122215,-299
1756899052.6141145,-289
1756899052.616152,-334
1756899052.6181204,-408
1756899052.6219432,-414
1756899052.622414,-328
1756899052.624343,-241
1756899052.6275265,-245
1756899052.6288135,-323
1756899052.6300168,-365
1756899052.6319737,-310
1756899052.6370432,-217
1756899052.6373389,-193
1756899052.639654,-283
1756899052.6398873,-425
1756899052.64167,-504
1756899052.643616,-473
1756899052.6455894,-382
1756899052.6475766,-325
1756899052.6495972,-342
1756899052.654246,-390
1756899052.6549954,-394
1756899052.655414,-324
1756899052.657407,-228
1756899052.6612098,-189
1756899052.6614213,-232
1756899052.6632743,-319
1756899052.6655288,-387
1756899052.6672177,-405
1756899052.6695206,-391
1756899052.6711867,-380
1756899052.673207,-388
1756899052.677791,-402
1756899052.6781697,-398
1756899052.682388,-368
1756899052.682617,-335
1756899052.6829503,-326
1756899052.6849422,-339
1756899052.6868763,-343
1756899052.6893766,-316
1756899052.6908455,-289
1756899052.6927497,-308
1756899052.6948268,-369
1756899052.6976264,-406
1756899052.6987815,-360
1756899052.7006762,-260
1756899052.7025318,-196
1756899052.704581,-236
1756899052.7102082,-352
1756899052.710447,-454
1756899052.7106464,-477
1756899052.7124157,-442
1756899052.73672,-418
1756899052.7466667,-446
1756899052.7479565,-496
1756899052.748173,-508
1756899052.7483716,-461
1756899052.7485685,-388
1756899052.748765,-335
1756899052.748962,-317
1756899052.749157,-317
1756899052.7493567,-321
1756899052.7495563,-337
1756899052.7497532,-368
1756899052.7499485,-388
1756899052.7501447,-383
1756899052.750341,-382
1756899052.7505834,-423
1756899052.7507813,-484
1756899052.750979,-486
1756899052.7511764,-403
1756899052.752011,-314
1756899052.7537642,-320
1756899052.7558122,-412
1756899052.7576616,-480
1756899052.764831,-446
1756899052.7673006,-369
1756899052.7675626,-357
1756899052.7677631,-426
1756899052.767971,-490
1756899052.7696433,-483
1756899052.771555,-444
1756899052.7748141,-448
1756899052.7757673,-499
1756899052.7773762,-529
1756899052.77946,-501
1756899052.781371,-457
1756899052.7833867,-459
1756899052.7852817,-507
1756899052.7871463,-553
1756899052.789106,-566
1756899052.7910755,-553
1756899052.7932744,-531
1756899052.7951484,-505
1756899052.796972,-487
1756899052.7990258,-506
1756899052.8014278,-577
1756899052.8028996,-666
1756899052.8068871,-712
1756899052.80717,-683
1756899052.8087308,-614
1756899052.8109078,-587
1756899052.8127105,-652
1756899052.8148525,-765
1756899052.8167014,-824
1756899052.8188431,-772
1756899052.8205752,-646
1756899052.822847,-544
1756899052.8245716,-534
1756899052.8264005,-586
1756899052.8357344,-626
1756899052.8479774,-609
1756899052.848428,-555
1756899052.8486557,-514
1756899052.848863,-518
1756899052.8490834,-579
1756899052.849387,-697
1756899052.8496046,-834
1756899052.8498416,-917
1756899052.850061,-886
1756899052.8502643,-764
1756899052.8509216,-659
1756899052.8520713,-656
1756899052.8541653,-724
1756899052.8567848,-734
1756899052.8615956,-604
1756899052.89503,-393
1756899052.8958247,-256
1756899052.8971353,-293
1756899052.8976886,-456
1756899052.8980331,-609
1756899052.8982377,-653
1756899052.8984349,-611
1756899052.8986318,-585
1756899052.8988285,-645
1756899052.8990579,-741
1756899052.899256,-772
1756899052.8994997,-696
1756899052.8997734,-580
1756899052.9002028,-527
1756899052.9015431,-563
1756899052.901752,-617
1756899052.9020064,-613
1756899052.9022703,-570
1756899052.9025252,-573
1756899052.9027245,-656
1756899052.9036589,-749
1756899052.9044216,-766
1756899052.9066446,-696
1756899052.906862,-621
1756899052.9070868,-609
1756899052.9090312,-644
1756899052.9110022,-652
1756899052.913234,-590
1756899052.9149058,-500
1756899052.919207,-458
1756899052.919587,-487
1756899052.9211097,-551
1756899052.9230056,-591
1756899052.925093,-591
1756899052.9271584,-581
1756899052.9287791,-596
1756899052.9311612,-632
1756899052.9327176,-660
1756899052.9347246,-665
1756899052.9368775,-665
1756899052.9386148,-679
1756899052.9532783,-696
1756899052.9573288,-692
1756899052.9576957,-668
1756899052.957924,-651
1756899052.9623425,-653
1756899052.9631274,-657
1756899052.9641635,-649
1756899052.9644582,-644
1756899052.9646628,-678
1756899052.964859,-738
1756899052.9650557,-764
1756899052.9652972,-730
1756899052.966091,-698
1756899052.9664638,-732
1756899052.9718497,-800
1756899052.972121,-795
1756899052.9725866,-686
1756899052.974082,-576
1756899052.9759724,-584
1756899052.9779973,-689
1756899052.980107,-736
1756899052.982138,-655
1756899052.983897,-547
1756899052.9857266,-553
1756899052.987758,-649
1756899052.9897268,-686
1756899052.9916885,-598
1756899052.9985611,-500
1756899052.9988205,-542
1756899052.999027,-695
1756899052.999492,-776
1756899053.0028234,-690
1756899053.0034168,-561
1756899053.0101912,-575
1756899053.0105662,-740
1756899053.0108113,-872
1756899053.0116522,-828
1756899053.01338,-675
1756899053.015299,-602
1756899053.0172896,-679
1756899053.0192194,-783
1756899053.0211637,-769
1756899053.023137,-647
1756899053.0251102,-560
1756899053.027818,-595
1756899053.0290327,-695
1756899053.0309997,-740
1756899053.046995,-712
1756899053.0472994,-699
1756899053.0476048,-760
1756899053.0480764,-837
1756899053.0482898,-832
1756899053.0486343,-743
1756899053.0490851,-669
1756899053.0494287,-700
1756899053.0506413,-796
1756899053.051321,-835
1756899053.052632,-761
1756899053.055259,-654
1756899053.0565124,-638
1756899053.0585418,-742
1756899053.0605326,-877
1756899053.062482,-916
1756899053.06445,-841
1756899053.066412,-745
1756899053.068387,-725
1756899053.0703342,-790
1756899053.088535,-863
1756899053.0895636,-858
1756899053.0898843,-778
1756899053.090901,-698
1756899053.0911107,-677
1756899053.0913105,-703
1756899053.0915096,-716
1756899053.0917232,-688
1756899053.0922678,-648
1756899053.0989287,-641
1756899053.0992591,-664
1756899053.0994911,-665
1756899053.099704,-614
1756899053.0999165,-546
1756899053.1001272,-524
1756899053.1018944,-568
1756899053.1038718,-631
1756899053.1106446,-651
1756899053.1109142,-624
1756899053.1111257,-602
1756899053.1117213,-634
1756899053.1135633,-709
1756899053.1155534,-770
1756899053.117481,-779
1756899053.1273303,-739
1756899053.1274338,-689
1756899053.1274984,-658
1756899053.1277635,-640
1756899053.127981,-615
1756899053.1291254,-583
1756899053.1324127,-551
1756899053.133392,-523
1756899053.135105,-503
1756899053.1373348,-498
1756899053.1390378,-516
1756899053.141102,-558
1756899053.1703305,-597
1756899053.170619,-607
1756899053.1708338,-599
1756899053.1710355,-611
1756899053.171403,-659
1756899053.1718197,-709
1756899053.1724226,-712
1756899053.175719,-666
1756899053.1788642,-627
1756899053.179085,-646
1756899053.1794646,-709
1756899053.1801145,-752
1756899053.1803398,-739
1756899053.1805742,-695
1756899053.1807747,-679
1756899053.1809745,-719
1756899053.1811736,-780
1756899053.1813786,-803
1756899053.1815755,-765
1756899053.1817732,-714
1756899053.1824784,-725
1756899053.1842546,-819
1756899053.1862276,-949
1756899053.1883905,-1047
1756899053.1902914,-1095
1756899053.1923032,-1151
1756899053.1941645,-1268
1756899053.1973472,-1441
1756899053.1982152,-1609
1756899053.2005086,-1716
1756899053.2022069,-1744
1756899053.2039683,-1714
1756899053.2061644,-1641
1756899053.2082484,-1534
1756899053.2098837,-1399
1756899053.2118483,-1244
1756899053.213857,-1069
1756899053.2157795,-875
1756899053.217773,-682
1756899053.2225373,-530
1756899053.2228887,-446
1756899053.2374513,-420
1756899053.237743,-421
1756899053.237973,-423
1756899053.2382119,-428
1756899053.2384617,-442
1756899053.2387831,-463
1756899053.2389839,-483
1756899053.239399,-499
1756899053.2398393,-505
1756899053.2422683,-498
1756899053.2436922,-485
1756899053.248344,-472
1756899053.2485824,-462
1756899053.2505414,-452
1756899053.2527413,-451
1756899053.2530994,-477
1756899053.2551432,-523
1756899053.2575505,-547
1756899053.259096,-502
1756899053.261029,-404
1756899053.2629778,-337
1756899053.265,-382
1756899053.2669814,-513
1756899053.2688885,-617
1756899053.2708476,-606
1756899053.2728856,-519
1756899053.2987642,-474
1756899053.299097,-531
1756899053.2997599,-638
1756899053.3000283,-698
1756899053.301992,-674
1756899053.3023484,-613
1756899053.3079782,-568
1756899053.3086143,-541
1756899053.3088765,-510
1756899053.3092034,-492
1756899053.3102052,-512
1756899053.3104389,-559
1756899053.31064,-574
1756899053.3108387,-525
1756899053.3110366,-462
1756899053.311234,-456
1756899053.3114321,-517
1756899053.3116295,-582
1756899053.3118272,-598
1756899053.3124511,-588
1756899053.3143632,-595
1756899053.3160248,-616
1756899053.3246312,-609
1756899053.3248758,-572
1756899053.3250806,-566
1756899053.3252814,-631
1756899053.3259468,-725
1756899053.3282392,-753
1756899053.332075,-684
1756899053.3323102,-589
1756899053.3338327,-568
1756899053.3421533,-650
1756899053.3424237,-757
1756899053.3426363,-792
1756899053.342841,-726
1756899053.3435106,-615
1756899053.346095,-551
1756899053.3478217,-584
1756899053.3498337,-671
1756899053.351628,-721
1756899053.3533926,-682
1756899053.3826523,-598
1756899053.3830047,-561
1756899053.3832138,-614
1756899053.3834114,-704
1756899053.3836095,-748
1756899053.3838277,-727
1756899053.3840256,-685
1756899053.384223,-672
1756899053.38477,-680
1756899053.3850026,-676
1756899053.3852656,-649
1756899053.3860862,-627
1756899053.3865583,-628
1756899053.3867612,-638
1756899053.3870053,-634
1756899053.3872244,-622
1756899053.387422,-630
1756899053.388752,-678
1756899053.3907561,-742
1756899053.3931575,-778
1756899053.3951252,-757
1756899053.3975544,-705
1756899053.398687,-673
1756899053.4006705,-688
1756899053.4026098,-716
1756899053.4102418,-709
1756899053.410592,-661
1756899053.411023,-615
1756899053.4111023,-630
1756899053.412216,-697
1756899053.414166,-747
1756899053.4161184,-729
1756899053.4180932,-655
1756899053.4202595,-584
1756899053.4230583,-556
1756899053.4241068,-561
1756899053.426068,-567
1756899053.4279768,-556
1756899053.4299672,-530
1756899053.4409966,-493
1756899053.4410934,-454
1756899053.4411564,-437
1756899053.4412193,-467
1756899053.4412808,-529
1756899053.441717,-580
1756899053.443712,-593
1756899053.446265,-591
1756899053.447677,-615
1756899053.4498262,-664
1756899053.4516966,-707
1756899053.4537692,-725
1756899053.455653,-737
1756899053.4576614,-760
1756899053.4596586,-786
1756899053.4616566,-798
1756899053.4636848,-797
1756899053.4656982,-796
1756899053.467502,-780
1756899053.469448,-732
1756899053.4725344,-670
1756899053.4746103,-652
1756899053.475227,-703
1756899053.4840634,-765
1756899053.484349,-758
1756899053.4849484,-698
1756899053.4851475,-686
1756899053.485269,-776
1756899053.4869986,-903
1756899053.4890032,-944
1756899053.4909995,-875
1756899053.4929144,-789
1756899053.4952347,-784
1756899053.496948,-849
1756899053.4990475,-896
1756899053.5008192,-868
1756899053.5032556,-805
1756899053.5046823,-773
1756899053.5097926,-781
1756899053.510051,-787
1756899053.5107784,-758
1756899053.5129368,-724
1756899053.5166986,-735
1756899053.5170429,-798
1756899053.5194707,-858
1756899053.520451,-854
1756899053.522608,-786
1756899053.5246086,-717
1756899053.5265427,-719
1756899053.5283008,-793
1756899053.530348,-872
1756899053.5322387,-879
1756899053.5343864,-806
1756899053.5371046,-723
1756899053.5383456,-707
1756899053.5400696,-761
1756899053.5420597,-811
1756899053.5441744,-796
1756899053.5484974,-730
1756899053.5486362,-681
1756899053.5498848,-681
1756899053.5519116,-692
1756899053.5539596,-661
1756899053.555796,-605
1756899053.5578544,-597
1756899053.5597644,-654
1756899053.5616987,-704
1756899053.5649722,-673
1756899053.5680354,-594
1756899053.568718,-581
1756899053.5696108,-682
1756899053.5715468,-807
1756899053.5735037,-826
1756899053.575784,-734
1756899053.5774257,-652
1756899053.580474,-676
1756899053.5825322,-757
1756899053.5835512,-777
1756899053.5853217,-703
1756899053.587272,-628
1756899053.589342,-643
1756899053.591342,-719
1756899053.5936816,-757
1756899053.6234248,-706
1756899053.6245568,-627
1756899053.6305766,-607
1756899053.6308846,-651
1756899053.6319098,-689
1756899053.634739,-667
1756899053.639238,-607
1756899053.6395426,-572
1756899053.6405973,-589
1756899053.640935,-622
1756899053.642147,-629
1756899053.6434705,-605
1756899053.6435344,-588
1756899053.643588,-607
1756899053.6489775,-665
1756899053.649771,-737
1756899053.6501873,-793
1756899053.6502755,-812
1756899053.6507235,-784
1756899053.6509457,-738
1756899053.6510122,-712
1756899053.6510751,-723
1756899053.6511552,-742
1756899053.6512182,-726
1756899053.6512797,-672
1756899053.651398,-620
1756899053.6514626,-601
1756899053.6515248,-604
1756899053.6516051,-612
1756899053.652103,-638
1756899053.6541512,-709
1756899053.6560624,-794
1756899053.6580365,-822
1756899053.6600838,-760
1756899053.6620245,-668
1756899053.6640716,-630
1756899053.667494,-651
1756899053.6679652,-665
1756899053.6703074,-631
1756899053.6719785,-574
1756899053.6742258,-540
1756899053.686112,-534
1756899053.6863778,-540
1756899053.686506,-570
1756899053.6866243,-658
1756899053.686832,-780
1756899053.6869538,-844
1756899053.687676,-796
1756899053.6905055,-688
1756899053.6914062,-624
1756899053.6945684,-650
1756899053.6953404,-706
1756899053.6974065,-713
1756899053.6992893,-667
1756899053.7015722,-621
1756899053.7032065,-616
1756899053.7055047,-637
1756899053.7078197,-664
1756899053.7093058,-693
1756899053.7116318,-723
1756899053.713267,-730
1756899053.7178361,-688
1756899053.7179215,-608
1756899053.71903,-551
1756899053.7209127,-563
1756899053.7232518,-627
1756899053.724814,-691
1756899053.7267845,-719
1756899053.7288406,-727
1756899053.7307565,-751
1756899053.732846,-800
1756899053.7348084,-853
1756899053.7385595,-892
1756899053.7388232,-906
1756899053.7413719,-903
1756899053.742851,-876
1756899053.7447486,-820
1756899053.7468312,-750
1756899053.7486396,-691
1756899053.7506075,-667
1756899053.7550225,-673
1756899053.7551837,-682
1756899053.756454,-678
1756899053.7596076,-673
1756899053.7623715,-687
1756899053.7624743,-726
1756899053.764267,-782
1756899053.7661076,-831
1756899053.768167,-847
1756899053.7700493,-827
1756899053.772085,-786
1756899053.7739916,-750
1756899053.7760024,-734
1756899053.7779174,-728
1756899053.7800221,-702
1756899053.7819963,-641
1756899053.7854178,-567
1756899053.786549,-514
1756899053.7956176,-496
1756899053.7958398,-510
1756899053.795993,-537
1756899053.79615,-568
1756899053.7962704,-595
1756899053.7977786,-600
1756899053.7996492,-584
1756899053.8015444,-574
1756899053.8044448,-608
1756899053.8054686,-684
1756899053.808837,-750
1756899053.809382,-755
1756899053.8113253,-712
1756899053.8133419,-685
1756899053.815851,-723
1756899053.8190725,-801
1756899053.8193467,-843
1756899053.8233197,-813
1756899053.8237906,-743
1756899053.82532,-693
1756899053.8274467,-695
1756899053.8293066,-722
1756899053.8311307,-731
1756899053.8331146,-714
1756899053.8350384,-693
1756899053.8370302,-685
1756899053.8389094,-691
1756899053.8409524,-687
1756899053.843001,-647
1756899053.8451824,-573
1756899053.8486457,-507
1756899053.849129,-495
1756899053.8518996,-545
1756899053.8528895,-610
1756899053.8548918,-632
1756899053.856759,-611
1756899053.858819,-604
1756899053.862444,-662
1756899053.862855,-767
1756899053.868241,-860
1756899053.8735573,-900
1756899053.873611,-905
1756899053.873655,-909
1756899053.8736985,-923
1756899053.8783937,-949
1756899053.8784692,-1007
1756899053.878528,-1121
1756899053.8804173,-1273
1756899053.8824365,-1401
1756899053.884528,-1462
1756899053.89663,-1484
1756899053.8979294,-1529
1756899053.898077,-1611
1756899053.8982184,-1666
1756899053.8983421,-1629
1756899053.8984601,-1505
1756899053.8985784,-1362
1756899053.8998423,-1234
1756899053.9018712,-1098
1756899053.922154,-930
1756899053.9239504,-765
1756899053.9243102,-669
1756899053.9245646,-652
1756899053.9263482,-650
1756899053.926816,-603
1756899053.9270153,-533
1756899053.9276726,-511
1756899053.927874,-557
1756899053.9280798,-626
1756899053.9282758,-654
1756899053.9284801,-640
1756899053.9287124,-619
1756899053.9297423,-608
1756899053.9317663,-592
1756899053.933531,-562
1756899053.9356017,-538
1756899053.9375248,-540
1756899053.9414732,-548
1756899053.941736,-512
1756899053.943703,-434
1756899053.9452343,-382
1756899053.94779,-427
1756899053.9509182,-550
1756899053.9518032,-638
1756899053.9531424,-599
1756899053.9553442,-477
1756899053.9570131,-412
1756899053.9745302,-482
1756899053.9750633,-609
1756899053.9752665,-637
1756899053.9754653,-529
1756899053.975663,-403
1756899053.9758613,-395
1756899053.9760587,-493
1756899053.976258,-571
1756899053.9764547,-540
1756899053.976652,-454
1756899053.9787748,-421
1756899053.980598,-468
1756899053.9826057,-538
1756899053.9849765,-572
1756899053.9868257,-571
1756899053.9893706,-557
1756899053.9905248,-529
1756899053.9937716,-489
1756899053.9943397,-455
1756899053.9965856,-446
1756899053.998608,-444
1756899054.0134864,-418
1756899054.0137134,-381
1756899054.013962,-386
1756899054.0141602,-442
1756899054.0146372,-506
1756899054.014841,-523
1756899054.0150383,-509
1756899054.0152345,-509
1756899054.0159504,-517
1756899054.017942,-496
1756899054.019892,-445
1756899054.0220332,-410
1756899054.0252466,-416
1756899054.0257852,-422
1756899054.0277536,-378
1756899054.0297866,-311
1756899054.0317304,-295
1756899054.0365016,-349
1756899054.0371106,-407
1756899054.0375695,-409
1756899054.0395434,-374
1756899054.041494,-368
1756899054.0434804,-401
1756899054.0455427,-418
1756899054.0475664,-388
1756899054.0494013,-343
1756899054.05135,-339
1756899054.0533435,-373
1756899054.0552988,-398
1756899054.0572867,-389
1756899054.0592487,-376
1756899054.0612867,-400
1756899054.063251,-451
1756899054.0651908,-476
1756899054.0673585,-445
1756899054.069191,-385
1756899054.0777338,-348
1756899054.0779715,-359
1756899054.078424,-400
1756899054.0786285,-426
1756899054.078824,-427
1756899054.0811331,-423
1756899054.0829976,-438
1756899054.0848134,-470
1756899054.0869284,-500
1756899054.088741,-511
1756899054.0910249,-503
1756899054.093785,-487
1756899054.0946703,-469
1756899054.0966353,-445
1756899054.098862,-415
1756899054.1006145,-398
1756899054.102579,-410
1756899054.1045396,-445
1756899054.1064258,-476
1756899054.1083522,-481
1756899054.1108022,-458
1756899054.1140492,-432
1756899054.1143088,-431
1756899054.116241,-458
1756899054.118264,-495
1756899054.1202135,-507
1756899054.123005,-477
1756899054.1240847,-426
1756899054.1261134,-391
1756899054.1286428,-408
1756899054.1301413,-462
1756899054.1320925,-505
1756899054.1340752,-487
1756899054.1361074,-409
1756899054.137961,-332
1756899054.141713,-327
1756899054.1419456,-409
1756899054.1444123,-514
1756899054.1458135,-557
1756899054.1478176,-518
1756899054.1496756,-468
1756899054.1517704,-497
1756899054.1538234,-613
1756899054.15726,-724
1756899054.1575,-731
1756899054.1598203,-634
1756899054.1615865,-531
1756899054.1635132,-511
1756899054.1654012,-569
1756899054.1681743,-618
1756899054.1703432,-596
1756899054.171312,-540
1756899054.1732838,-534
1756899054.1752532,-619
1756899054.1773024,-732
1756899054.1792796,-771
1756899054.1811445,-700
1756899054.1846669,-600
1756899054.1850429,-589
1756899054.1870768,-685
1756899054.188981,-784
1756899054.1910846,-771
1756899054.1929557,-655
1756899054.1960917,-558
1756899054.1969123,-588
1756899054.2045953,-721
1756899054.2060318,-819
1756899054.2062705,-790
1756899054.207266,-673
1756899054.2075727,-586
1756899054.2086506,-600
1756899054.2109036,-671
1756899054.2130556,-707
1756899054.214561,-658
1756899054.2169273,-565
1756899054.2185233,-509
1756899054.2204883,-532
1756899054.2224462,-600
1756899054.2254488,-630
1756899054.226402,-575
1756899054.2283409,-478
1756899054.2312407,-432
1756899054.2335248,-479
1756899054.2342691,-577
1756899054.236214,-632
1756899054.2382414,-608
1756899054.2401547,-557
1756899054.2421308,-552
1756899054.2442522,-606
1756899054.246026,-674
1756899054.2480323,-702
1756899054.2499623,-671
1756899054.2529469,-609
1756899054.2539163,-549
1756899054.2570467,-522
1756899054.257864,-542
1756899054.2598248,-595
1756899054.2617707,-633
1756899054.263923,-611
1756899054.2657044,-534
1756899054.267695,-454
1756899054.2698462,-420
1756899054.2715716,-422
1756899054.27455,-411
1756899054.278902,-365
1756899054.279171,-318
1756899054.2796853,-327
1756899054.2817278,-407
1756899054.2835624,-509
1756899054.2854548,-576
1756899054.289079,-590
1756899054.2892902,-582
1756899054.2913752,-590
1756899054.2933228,-622
1756899054.295158,-640
1756899054.2972143,-611
1756899054.3062575,-535
1756899054.3064756,-459
1756899054.3066726,-432
1756899054.3068671,-465
1756899054.3070784,-514
1756899054.3132672,-533
1756899054.3135047,-519
1756899054.313702,-509
1756899054.314936,-525
1756899054.3168545,-544
1756899054.3190343,-515
1756899054.3208039,-434
1756899054.3228986,-362
1756899054.3248012,-360
1756899054.3269327,-414
1756899054.3286695,-447
1756899054.3317711,-413
1756899054.332504,-360
1756899054.3376544,-374
1756899054.3378973,-480
1756899054.3387527,-596
1756899054.3403828,-630
1756899054.3423872,-567
1756899054.3449435,-477
1756899054.3462765,-426
1756899054.351474,-423
1756899054.35182,-429
1756899054.3534539,-413
1756899054.354143,-375
1756899054.3573754,-339
1756899054.3605494,-333
1756899054.3607783,-368
1756899054.3625667,-429
1756899054.3643885,-482
1756899054.3675742,-495
1756899054.3678913,-481
1756899054.3699274,-485
1756899054.3718858,-523
1756899054.3738,-552
1756899054.3759434,-510
1756899054.3783727,-408
1756899054.381623,-340
1756899054.3818398,-379
1756899054.3835812,-477
1756899054.385575,-504
1756899054.3876212,-407
1756899054.398107,-299
1756899054.3983831,-326
1756899054.3985827,-471
1756899054.3987842,-563
1756899054.398981,-476
1756899054.3998086,-290
1756899054.40137,-214
1756899054.4034944,-324
1756899054.4063463,-477
1756899054.4095116,-500
1756899054.409853,-401
1756899054.4112647,-353
1756899054.4131773,-463
1756899054.4151528,-637
1756899054.4171555,-708
1756899054.4190686,-643
1756899054.4266272,-560
1756899054.4282897,-564
1756899054.42861,-614
1756899054.4288142,-596
1756899054.4290125,-485
1756899054.4310193,-383
1756899054.4330118,-382
1756899054.4348195,-457
1756899054.4392035,-499
1756899054.4400475,-460
1756899054.440635,-405
1756899054.4468076,-434
1756899054.4471366,-557
1756899054.4686093,-675
1756899054.4688377,-682
1756899054.4690359,-576
1756899054.4692333,-474
1756899054.4695556,-481
1756899054.4698102,-568
1756899054.4709437,-603
1756899054.4714816,-511
1756899054.4730349,-360
1756899054.4734948,-295
1756899054.4747002,-365
1756899054.4773483,-455
1756899054.4794698,-443
1756899054.4799538,-352
1756899054.4803004,-306
1756899054.4828658,-357
1756899054.4833462,-417
1756899054.4840257,-384
1756899054.4844792,-289
1756899054.4849484,-261
1756899054.4909422,-349
1756899054.4913037,-448
1756899054.4943917,-442
1756899054.4972174,-364
1756899054.498165,-349
1756899054.4983697,-448
1756899054.4985678,-556
1756899054.5011404,-555
1756899054.5017693,-466
1756899054.5035498,-406
1756899054.5056274,-437
1756899054.5075533,-486
1756899054.512852,-476
1756899054.513081,-416
1756899054.5134718,-378
1756899054.5154104,-388
1756899054.5173934,-402
1756899054.51934,-400
1756899054.5321958,-408
1756899054.5326571,-443
1756899054.5328786,-456
1756899054.535209,-395
1756899054.537417,-301
1756899054.5381126,-277
1756899054.5390975,-356
1756899054.5394495,-456
1756899054.540066,-468
1756899054.5402684,-395
1756899054.5412982,-348
1756899054.5429392,-398
1756899054.5449483,-496
1756899054.546947,-545
1756899054.5488796,-516
1756899054.5547419,-472
1756899054.554994,-486
1756899054.555194,-559
1756899054.5759,-647
1756899054.5764296,-717
1756899054.577731,-773
1756899054.580848,-820
1756899054.581168,-864
1756899054.5815947,-922
1756899054.5830774,-1024
1756899054.5832822,-1167
1756899054.5834813,-1296
1756899054.5836804,-1348
1756899054.5839055,-1326
1756899054.584281,-1306
1756899054.5844822,-1369
1756899054.5846796,-1482
1756899054.5848768,-1542
1756899054.5862243,-1461
1756899054.588166,-1260
1756899054.59012,-1048
1756899054.5936968,-916
1756899054.5941179,-851
1756899054.5983808,-770
1756899054.598762,-615
1756899054.6000164,-421
1756899054.6021812,-283
1756899054.60412,-253
1756899054.6059425,-290
1756899054.6078756,-310
1756899054.6098292,-288
1756899054.6122992,-271
1756899054.6159782,-312
1756899054.6181073,-394
1756899054.6185343,-445
1756899054.6196327,-425
1756899054.6220648,-377
1756899054.6235766,-377
1756899054.6255198,-429
1756899054.627602,-466
1756899054.6298082,-424
1756899054.6341949,-334
1756899054.6344464,-291
1756899054.6353953,-335
1756899054.6382058,-407
1756899054.639361,-421
1756899054.6502416,-362
1756899054.651144,-303
1756899054.6514423,-314
1756899054.651647,-374
1756899054.651844,-411
1756899054.6520405,-384
1756899054.6531951,-326
1756899054.6550243,-290
1756899054.6570053,-284
1756899054.658931,-281
1756899054.6608927,-265
1756899054.6630328,-262
1756899054.6654708,-300
1756899054.6668665,-365
1756899054.668894,-411
1756899054.6715858,-412
1756899054.6730297,-395
1756899054.6750042,-400
1756899054.6766903,-443
1756899054.6791816,-482
1756899054.680628,-461
1756899054.6826055,-376
1756899054.6845362,-291
1756899054.6865008,-273
1756899054.688449,-327
1756899054.6904166,-388
1756899054.6923618,-395
1756899054.6947992,-360
1756899054.6975665,-346
1756899054.69826,-386
1756899054.7017612,-437
1756899054.7025275,-433
1756899054.7041562,-364
1756899054.7061288,-293
1756899054.7081335,-280
1756899054.7100797,-308
1756899054.7128685,-321
1756899054.7160447,-294
1756899054.716256,-265
1756899054.7179341,-285
1756899054.7198918,-355
1756899054.7218597,-419
1756899054.7265942,-438
1756899054.7269871,-428
1756899054.7355871,-426
1756899054.7384853,-444
1756899054.7387931,-443
1756899054.7391746,-393
1756899054.7414076,-322
1756899054.7417889,-292
1756899054.7427335,-334
1756899054.7429357,-401
1756899054.7438095,-421
1756899054.745462,-385
1756899054.7474215,-359
1756899054.7493773,-402
1756899054.7540665,-488
1756899054.756585,-531
1756899054.7568169,-489
1756899054.757727,-407
1756899054.7592552,-365
1756899054.761195,-378
1756899054.763166,-393
1756899054.7651923,-370
1756899054.7676375,-338
1756899054.7690494,-348
1756899054.7710137,-396
1756899054.7729645,-421
1756899054.7749436,-394
1756899054.7769105,-372
1756899054.7788765,-413
1756899054.780836,-502
1756899054.7828016,-550
1756899054.7847621,-494
1756899054.7868755,-390
1756899054.7886784,-348
1756899054.7909193,-398
1756899054.793131,-460
1756899054.7951202,-458
1756899054.7974153,-407
1756899054.7988806,-375
1756899054.8006663,-395
1756899054.803296,-427
1756899054.804462,-432
1756899054.812663,-437
1756899054.8127704,-479
1756899054.8132136,-529
1756899054.8132892,-519
1756899054.8141224,-439
1756899054.8161802,-372
1756899054.8181593,-392
1756899054.8200047,-462
1756899054.8233972,-469
1756899054.823915,-373
1756899054.8258996,-270
1756899054.827875,-280
1756899054.829915,-405
1756899054.8334732,-524
1756899054.8342474,-540
1756899054.837422,-480
1756899054.8377264,-442
1756899054.8659956,-466
1756899054.8670168,-508
1756899054.8680058,-512
1756899054.8680818,-479
1756899054.8684838,-453
1756899054.868572,-452
1756899054.868621,-462
1756899054.8686817,-480
1756899054.86873,-511
1756899054.8687809,-561
1756899054.868828,-599
1756899054.8688736,-594
1756899054.8689954,-563
1756899054.8690584,-554
1756899054.8691037,-580
1756899054.86915,-605
1756899054.8961425,-597
1756899054.8971047,-565
1756899054.8971741,-549
1756899054.8974402,-569
1756899054.8975465,-599
1756899054.8981109,-614
1756899054.8981864,-617
1756899054.8984206,-623
1756899054.8985562,-627
1756899054.8987238,-609
1756899054.8988366,-566
1756899054.8988864,-525
1756899054.898934,-520
1756899054.8989837,-545
1756899054.8990355,-555
1756899054.9006991,-522
1756899054.9034324,-478
1756899054.905255,-485
1756899054.9064925,-575
1756899054.9089017,-708
1756899054.9105625,-783
1756899054.9140396,-737
1756899054.9147162,-610
1756899054.916303,-510
1756899054.9183116,-519
1756899054.9202797,-605
1756899054.9222581,-666
1756899054.9241998,-630
1756899054.9261518,-522
1756899054.9281397,-436
1756899054.930187,-439
1756899054.9323347,-511
1756899054.9340982,-577
1756899054.9360454,-579
1756899054.9379735,-527
1756899054.939971,-488
1756899054.9419625,-511
1756899054.9438417,-575
1756899054.945904,-614
1756899054.9477608,-593
1756899054.9498532,-557
1756899054.951754,-571
1756899054.9603848,-632
1756899054.9606125,-666
1756899054.9606624,-615
1756899054.9607093,-527
1756899054.9617138,-498
1756899054.9635267,-553
1756899054.9655902,-608
1756899054.96751,-571
1756899054.969382,-463
1756899054.9718688,-395
1756899054.973491,-432
1756899054.976167,-521
1756899054.9917092,-562
1756899054.9921322,-527
1756899054.9925134,-475
1756899054.9927633,-477
1756899054.9930134,-527
1756899054.9931462,-554
1756899054.9932,-518
1756899054.993253,-438
1756899054.9933054,-373
1756899054.994949,-353
1756899054.9969056,-366
1756899055.0068429,-376
1756899055.0074704,-364
1756899055.0078855,-345
1756899055.0081615,-344
1756899055.008589,-369
1756899055.009259,-392
1756899055.0115714,-388
1756899055.012764,-365
1756899055.0146704,-372
1756899055.0166106,-447
1756899055.0191612,-549
1756899055.020535,-584
1756899055.0226731,-505
1756899055.0246346,-374
1756899055.0265558,-315
1756899055.0286698,-368
1756899055.0304196,-447
1756899055.0356119,-428
1756899055.0359988,-308
1756899055.0484238,-205
1756899055.0500193,-227
1756899055.0523262,-344
1756899055.0531762,-434
1756899055.0534859,-425
1756899055.0536487,-369
1756899055.0538967,-354
1756899055.0539405,-405
1756899055.0539815,-470
1756899055.054023,-497
1756899055.0562685,-475
1756899055.0579865,-430
1756899055.0598886,-392
1756899055.061871,-375
1756899055.0638123,-383
1756899055.0657728,-386
1756899055.0687957,-351
1756899055.069716,-275
1756899055.0716612,-221
1756899055.0746346,-259
1756899055.0851474,-367
1756899055.0852377,-439
1756899055.0853074,-400
1756899055.0853596,-309
1756899055.0854115,-286
1756899055.0854633,-377
1756899055.087812,-501
1756899055.0896454,-541
1756899055.091643,-472
1756899055.0933337,-372
1756899055.0964255,-333
1756899055.0974813,-373
1756899055.0995898,-442
1756899055.1012628,-470
1756899055.1031594,-431
1756899055.1051068,-370
1756899055.1070411,-355
1756899055.1090524,-410
1756899055.112209,-482
1756899055.1130052,-495
1756899055.1173642,-442
1756899055.117476,-391
1756899055.1188436,-408
1756899055.1209989,-473
1756899055.123762,-511
1756899055.124994,-487
1756899055.1267235,-451
1756899055.1286829,-474
1756899055.130661,-547
1756899055.1326995,-606
1756899055.134815,-608
1756899055.1366022,-578
1756899055.138469,-562
1756899055.140481,-565
1756899055.142425,-564
1756899055.1445181,-542
1756899055.1463673,-513
1756899055.1484966,-509
1756899055.1502893,-537
1756899055.1523936,-572
1756899055.154194,-571
1756899055.1561444,-521
1756899055.1583478,-463
1756899055.1602492,-444
1756899055.1623726,-474
1756899055.1670141,-501
1756899055.1672034,-461
1756899055.1681414,-366
1756899055.1701405,-294
1756899055.172086,-307
1756899055.1740305,-375
1756899055.175867,-413
1756899055.179109,-376
1756899055.1798766,-315
1756899055.181717,-307
1756899055.183753,-367
1756899055.185676,-428
1756899055.187646,-427
1756899055.190054,-364
1756899055.1917012,-296
1756899055.1935925,-293
1756899055.1955836,-365
1756899055.1977391,-449
1756899055.199488,-461
1756899055.2015197,-378
1756899055.2036817,-285
1756899055.2123811,-284
1756899055.212539,-380
1756899055.21262,-468
1756899055.2127557,-452
1756899055.2132432,-355
1756899055.2152154,-292
1756899055.2171648,-328
1756899055.2190614,-404
1756899055.2214508,-430
1756899055.2238839,-394
1756899055.2250173,-361
1756899055.2272124,-370
1756899055.2298887,-397
1756899055.2309077,-396
1756899055.2329974,-379
1756899055.2348154,-388
1756899055.2379062,-425
1756899055.239759,-446
1756899055.2407928,-425
1756899055.2427878,-397
1756899055.2449071,-415
1756899055.2466717,-482
1756899055.2486103,-553
1756899055.2520745,-589
1756899055.2527795,-597
1756899055.2546475,-622
1756899055.2564602,-693
1756899055.2586405,-799
1756899055.260614,-914
1756899055.263392,-1019
1756899055.2644656,-1126
1756899055.2664757,-1252
1756899055.2683356,-1385
1756899055.2703357,-1481
1756899055.2723575,-1506
1756899055.2767637,-1480
1756899055.2768447,-1454
1756899055.2781951,-1444
1756899055.2800424,-1396
1756899055.2824764,-1242
1756899055.2841232,-1005
1756899055.2859142,-794
1756899055.288545,-686
1756899055.2898755,-645
1756899055.2918003,-582
1756899055.2937825,-463
1756899055.2958207,-351
1756899055.297807,-319
1756899055.2997518,-354
1756899055.3019857,-387
1756899055.3036973,-380
1756899055.3057816,-367
1756899055.3077195,-385
1756899055.3108394,-419
1756899055.3115897,-419
1756899055.3135633,-374
1756899055.3156788,-334
1756899055.3202016,-353
1756899055.32046,-412
1756899055.3214345,-438
1756899055.324323,-396
1756899055.3262694,-334
1756899055.3277097,-314
1756899055.3294053,-331
1756899055.3339186,-315
1756899055.3348749,-231
1756899055.3353598,-152
1756899055.337966,-164
1756899055.3391254,-252
1756899055.341148,-301
1756899055.343065,-264
1756899055.3450692,-224
1756899055.3490248,-297
1756899055.3492317,-453
1756899055.3529334,-547
1756899055.353161,-491
1756899055.3554637,-379
1756899055.3568692,-358
1756899055.3707328,-447
1756899055.3709044,-518
1756899055.3709898,-473
1756899055.371214,-363
1756899055.3712733,-315
1756899055.371328,-368
1756899055.371388,-436
1756899055.3724482,-439
1756899055.374923,-392
1756899055.376383,-359
1756899055.3783693,-362
1756899055.3802545,-378
1756899055.3822324,-402
1756899055.3842597,-453
1756899055.3865957,-515
1756899055.3901021,-528
1756899055.3902073,-455
1756899055.3922431,-350
1756899055.395831,-322
1756899055.3961232,-406
1756899055.3988557,-514
1756899055.4000382,-528
1756899055.4072528,-426
1756899055.407457,-317
1756899055.4138894,-315
1756899055.4143167,-419
1756899055.4146633,-529
1756899055.4147844,-562
1756899055.414838,-522
1756899055.4158373,-472
1756899055.4177463,-446
1756899055.4195933,-428
1756899055.4216058,-400
1756899055.4236202,-383
1756899055.4255617,-412
1756899055.4275928,-475
1756899055.4296017,-515
1756899055.4315484,-501
1756899055.4334514,-468
1756899055.4356544,-485
1756899055.4375436,-573
1756899055.4397173,-677
1756899055.4413316,-718
1756899055.4432876,-673
1756899055.4453287,-588
1756899055.4473403,-529
1756899055.4493833,-529
1756899055.4518766,-554
1756899055.45307,-546
1756899055.4555085,-489
1756899055.4569628,-422
1756899055.4604619,-403
1756899055.4643617,-437
1756899055.4647257,-469
1756899055.4651372,-451
1756899055.4668062,-405
1756899055.4689407,-409
1756899055.4707592,-490
1756899055.4736156,-582
1756899055.4763813,-587
1756899055.4771016,-493
1756899055.482372,-393
1756899055.4830608,-377
1756899055.483787,-436
1756899055.4844692,-473
1756899055.4875987,-436
1756899055.4884286,-370
1756899055.4907982,-355
1756899055.4926875,-407
1756899055.4943583,-476
1756899055.4963639,-523
1756899055.498246,-560
1756899055.500181,-609
1756899055.5021517,-646
1756899055.5041094,-616
1756899055.5060866,-522
1756899055.508236,-443
1756899055.5115592,-446
1756899055.5122902,-507
1756899055.5198414,-522
1756899055.5201006,-431
1756899055.5202267,-305
1756899055.520346,-279
1756899055.5219676,-400
1756899055.5238965,-569
1756899055.5258152,-649
1756899055.5277734,-604
1756899055.5299058,-532
1756899055.5316908,-539
1756899055.5336177,-616
1756899055.5370305,-667
1756899055.5375783,-633
1756899055.5395527,-566
1756899055.542636,-549
1756899055.543484,-586
1756899055.5456018,-598
1756899055.5477636,-549
1756899055.550831,-507
1756899055.5529358,-549
1756899055.5553002,-643
1756899055.555556,-665
1756899055.557674,-572
1756899055.559461,-470
1756899055.5616834,-492
1756899055.563265,-619
1756899055.5653038,-697
1756899055.5673165,-628
1756899055.5696754,-504
1756899055.5711243,-489
1756899055.57311,-607
1756899055.5750375,-722
1756899055.5769973,-720
1756899055.5794017,-640
1756899055.5812652,-599
1756899055.5838492,-644
1756899055.5848808,-704
1756899055.5868382,-717
1756899055.589928,-705
1756899055.5909014,-727
1756899055.6092107,-779
1756899055.609475,-800
1756899055.6096756,-769
1756899055.6099713,-730
1756899055.61017,-732
1756899055.6103683,-759
1756899055.6105955,-753
1756899055.610794,-694
1756899055.6112921,-619
1756899055.6131399,-571
1756899055.6150296,-559
1756899055.6166577,-568
1756899055.617005,-596
1756899055.623083,-640
1756899055.6239235,-682
1756899055.6254227,-695
1756899055.625651,-678
1756899055.6290963,-656
1756899055.629317,-657
1756899055.6301575,-686
1756899055.6324792,-721
1756899055.6341171,-731
1756899055.6360016,-693
1756899055.6385732,-618
1756899055.639927,-550
1756899055.6420708,-543
1756899055.6455636,-603
1756899055.6458175,-680
1756899055.6479125,-715
1756899055.6522613,-700
1756899055.652586,-685
1756899055.6564398,-705
1756899055.6566484,-739
1756899055.6585982,-740
1756899055.6595922,-705
1756899055.6619098,-684
1756899055.6639476,-720
1756899055.6654906,-781
1756899055.6674542,-800
1756899055.6694078,-751
1756899055.6714518,-690
1756899055.673706,-696
1756899055.675558,-774
1756899055.6773617,-854
1756899055.679312,-862
1756899055.6813023,-799
1756899055.6832244,-729
1756899055.6851716,-720
1756899055.687148,-771
1756899055.6895409,-824
1756899055.704105,-830
1756899055.7043898,-790
1756899055.7045953,-754
1756899055.7047925,-766
1756899055.7049897,-812
1756899055.7051866,-837
1756899055.7053823,-816
1756899055.7055788,-776
1756899055.7068634,-768
1756899055.7089226,-798
1756899055.7109432,-815
1756899055.7129061,-786
1756899055.7149136,-739
1756899055.716794,-739
1756899055.7187893,-808
1756899055.7206445,-902
1756899055.7227623,-954
1756899055.7246635,-949
1756899055.7267382,-927
1756899055.7286372,-930
1756899055.7305896,-965
1756899055.7334433,-1002
1756899055.734503,-1007
1756899055.7378457,-964
1756899055.7384217,-904
1756899055.77238,-873
1756899055.7727635,-901
1756899055.7730882,-961
1756899055.780035,-990
1756899055.7804904,-960
1756899055.7806606,-916
1756899055.7812958,-936
1756899055.7813752,-1035
1756899055.781439,-1150
1756899055.781503,-1204
1756899055.7815657,-1180
1756899055.7816284,-1125
1756899055.7816908,-1088
1756899055.7817822,-1082
1756899055.7818482,-1094
1756899055.7819133,-1100
1756899055.7819767,-1089
1756899055.7823768,-1068
1756899055.782443,-1063
1756899055.7825053,-1110
1756899055.7825668,-1212
1756899055.7826302,-1314
1756899055.7835436,-1358
1756899055.7857287,-1343
1756899055.787405,-1315
1756899055.7892935,-1313
1756899055.7912726,-1334
1756899055.7932758,-1345
1756899055.7953725,-1337
1756899055.7983406,-1322
1756899055.7998252,-1317
1756899055.8031569,-1331
1756899055.8032753,-1368
1756899055.8050969,-1428
1756899055.8076177,-1496
1756899055.8095334,-1553
1756899055.8122425,-1587
1756899055.8129482,-1606
1756899055.8150787,-1622
1756899055.8229992,-1639
1756899055.8249655,-1662
1756899055.826109,-1695
1756899055.826334,-1735
1756899055.826531,-1760
1756899055.8267272,-1760
1756899055.8288596,-1766
1756899055.830787,-1806
1756899055.8327417,-1859
1756899055.8346717,-1867
1756899055.8366249,-1812
1756899055.8386843,-1758
1756899055.8406432,-1768
1756899055.8425899,-1811
1756899055.8449008,-1789
1756899055.8493176,-1667
1756899055.8499606,-1538
1756899055.8505375,-1528
1756899055.8526094,-1635
1756899055.85437,-1733
1756899055.8563066,-1719
1756899055.8583744,-1631
1756899055.8607695,-1583
1756899055.8622527,-1620
1756899055.8641343,-1681
1756899055.8660939,-1688
1756899055.8680797,-1637
1756899055.8703775,-1571
1756899055.8720694,-1528
1756899055.8741505,-1512
1756899055.8763921,-1519
1756899055.8814259,-1545
1756899055.8880813,-1569
1756899055.8883178,-1570
1756899055.8885202,-1546
1756899055.8887188,-1524
1756899055.8917031,-1523
1756899055.8919215,-1537
1756899055.8921196,-1545
1756899055.8936734,-1538
1756899055.8956628,-1514
1756899055.9000654,-1469
1756899055.9003088,-1411
1756899055.9016132,-1380
1756899055.9055858,-1424
1756899055.9060793,-1531
1756899055.9074152,-1601
1756899055.9099731,-1544
1756899055.9114528,-1384
1756899055.9133492,-1253
1756899055.915304,-1259
1756899055.9207902,-1369
1756899055.9210832,-1443
1756899055.9226158,-1382
1756899055.9231434,-1238
1756899055.9251103,-1158
1756899055.9271119,-1236
1756899055.9331822,-1420
1756899055.9334104,-1560
1756899055.9336088,-1574
1756899055.934975,-1518
1756899055.9369378,-1511
1756899055.9389112,-1602
1756899055.9408617,-1718
1756899055.9469666,-1766
1756899055.9479792,-1761
1756899055.9481928,-1808
1756899055.9485943,-1965
1756899055.950694,-2144
1756899055.9568088,-2202
1756899055.9571197,-2111
1756899055.9573455,-1991
1756899055.958728,-1959
1756899055.9644,-1995
1756899055.9645934,-1969
1756899055.964749,-1806
1756899055.966259,-1560
1756899055.9688475,-1347
1756899055.9709592,-1223
1756899055.9724038,-1155
1756899055.9744587,-1080
1756899055.9766479,-980
1756899055.9784048,-875
1756899055.9801552,-794
1756899055.9822655,-736
1756899055.9852262,-707
1756899055.986694,-716
1756899055.9880834,-752
1756899055.989898,-767
1756899055.9918838,-720
1756899055.9939792,-633
1756899055.9959915,-578
1756899055.9979534,-599
1756899055.9996533,-656
1756899056.0016468,-667
1756899056.0035427,-616
1756899056.0055587,-562
1756899056.0075214,-574
1756899056.009516,-631
1756899056.011587,-656
1756899056.0133667,-624
1756899056.0155187,-583
1756899056.0177894,-582
1756899056.0196433,-594
1756899056.021489,-561
1756899056.0233636,-500
1756899056.0253298,-491
1756899056.0284488,-572
1756899056.029211,-671
1756899056.0311503,-685
1756899056.0331767,-612
1756899056.035078,-553
1756899056.037039,-592
1756899056.038985,-696
1756899056.0409384,-761
1756899056.04432,-729
1756899056.0453658,-636
1756899056.0470417,-554
1756899056.0503848,-527
1756899056.050814,-549
1756899056.052698,-590
1756899056.0548053,-613
1756899056.0589416,-592
1756899056.0590475,-535
1756899056.060744,-495
1756899056.0627053,-519
1756899056.0655403,-582
1756899056.0665565,-607
1756899056.0696397,-550
1756899056.0705428,-459
1756899056.0742931,-411
1756899056.0744398,-435
1756899056.087222,-479
1756899056.087345,-486
1756899056.08745,-450
1756899056.0875542,-412
1756899056.087659,-390
1756899056.087763,-361
1756899056.0881402,-314
1756899056.0901914,-272
1756899056.0934343,-268
1756899056.0945961,-298
1756899056.0965436,-313
1756899056.097944,-297
1756899056.099917,-288
1756899056.101844,-329
1756899056.1038144,-408
1756899056.105772,-462
1756899056.107748,-457
1756899056.1097128,-427
1756899056.1117938,-432
1756899056.1137638,-481
1756899056.1157885,-514
1756899056.117742,-488
1756899056.11976,-429
1756899056.1218443,-404
1756899056.123588,-442
1756899056.125646,-493
1756899056.127921,-489
1756899056.1299117,-414
1756899056.1316931,-318
1756899056.133394,-268
1756899056.1354349,-286
1756899056.1375387,-342
1756899056.139288,-373
1756899056.141223,-335
1756899056.1526053,-244
1756899056.1527236,-177
1756899056.1531007,-207
1756899056.1532602,-323
1756899056.153313,-425
1756899056.153535,-416
1756899056.1550126,-305
1756899056.1569655,-199
1756899056.158917,-180
1756899056.161097,-222
1756899056.1636107,-249
1756899056.1648605,-237
1756899056.1680315,-226
1756899056.1686995,-256
1756899056.1707683,-308
1756899056.1727467,-341
1756899056.174674,-357
1756899056.1766512,-392
1756899056.1790721,-454
1756899056.1806426,-492
1756899056.1827633,-457
1756899056.1845737,-349
1756899056.1864936,-228
1756899056.1885183,-160
1756899056.1920917,-161
1756899056.1929243,-213
1756899056.197423,-272
1756899056.1985257,-293
1756899056.1986237,-263
1756899056.2004983,-233
1756899056.203396,-278
1756899056.204389,-398
1756899056.2063212,-501
1756899056.2082603,-496
1756899056.210224,-397
1756899056.2121844,-311
1756899056.2141385,-305
1756899056.2161186,-342
1756899056.2179644,-344
1756899056.2200685,-302
1756899056.2220402,-270
1756899056.2242582,-281
1756899056.2267327,-303
1756899056.2281961,-303
1756899056.2298448,-303
1756899056.2318664,-342
1756899056.233863,-394
1756899056.2359118,-381
1756899056.2376444,-283
1756899056.239738,-184
1756899056.241688,-188
1756899056.2436588,-291
1756899056.2456267,-386
1756899056.2524612,-390
1756899056.2541966,-322
1756899056.2543373,-277
1756899056.254458,-311
1756899056.2553232,-396
1756899056.2572877,-455
1756899056.2591994,-444
1756899056.2610955,-377
1756899056.2631366,-294
1756899056.2651036,-232
1756899056.2670312,-208
1756899056.2690504,-218
1756899056.2710009,-243
1756899056.273082,-255
1756899056.2753072,-239
1756899056.2784452,-208
1756899056.2789552,-192
1756899056.2857504,-214
1756899056.2859464,-276
1756899056.286141,-353
1756899056.28718,-398
1756899056.2888057,-383
1756899056.2907064,-321
1756899056.2931173,-254
1756899056.2946448,-217
1756899056.2977333,-193
1756899056.298544,-152
1756899056.3004892,-92
1756899056.3024654,-47
1756899056.3045232,-50
1756899056.3063216,-76
1756899056.3083956,-68
1756899056.3110425,-10
1756899056.313124,40
1756899056.314204,7
1756899056.3163645,-104
1756899056.3182752,-207
1756899056.3201108,-214
1756899056.3235977,-135
1756899056.324161,-69
1756899056.32942,-90
1756899056.3296435,-168
1756899056.3301606,-215
1756899056.333213,-187
1756899056.334085,-122
1756899056.3359435,-84
1756899056.3379707,-82
1756899056.3399174,-93
1756899056.3419068,-113
1756899056.3452003,-157
1756899056.3457963,-212
1756899056.3477683,-219
1756899056.349805,-145
1756899056.358133,-44
1756899056.3645692,-12
1756899056.3648353,-73
1756899056.365035,-148
1756899056.3652625,-158
1756899056.3654726,-106
1756899056.365672,-63
1756899056.3658779,-67
1756899056.370922,-90
1756899056.371414,-108
1756899056.3716226,-124
1756899056.3732948,-148
1756899056.375443,-155
1756899056.3772933,-116
1756899056.379567,-51
1756899056.3811953,-31
1756899056.3834562,-81
1756899056.3851092,-147
1756899056.3878398,-157
1756899056.3891482,-105
1756899056.3950315,-54
1756899056.3955905,-64
1756899056.3959522,-119
1756899056.399534,-161
1756899056.399788,-149
1756899056.4015582,-83
1756899056.4082267,0
1756899056.4085836,56
1756899056.4088187,60
1756899056.4090397,19
1756899056.4115124,-19
1756899056.4126732,-14
1756899056.4148335,23
1756899056.416639,28
1756899056.4187937,-38
1756899056.420557,-126
1756899056.4227526,-147
1756899056.4246535,-75
1756899056.4263792,6
1756899056.4318955,3
1756899056.4321716,-81
1756899056.4323764,-138
1756899056.434289,-95
1756899056.4362218,-4
1756899056.4382534,24
1756899056.4401674,-37
1756899056.4426336,-93
1756899056.444162,-57
1756899056.446118,32
1756899056.4513714,63
1756899056.451709,-6
1756899056.4520314,-90
1756899056.4613357,-78
1756899056.4616046,24
1756899056.46181,102
1756899056.462015,74
1756899056.4622133,-22
1756899056.463837,-81
1756899056.4663491,-37
1756899056.467712,63
1756899056.469681,118
1756899056.471634,70
1756899056.4737985,-43
1756899056.4798243,-118
1756899056.4800766,-87
1756899056.4802773,9
1756899056.4815257,58
1756899056.4834907,-8
1756899056.485393,-124
1756899056.4874885,-165
1756899056.4893618,-92
1756899056.4915195,6
1756899056.4936082,20
1756899056.4978325,-56
1756899056.4980814,-116
1756899056.4994228,-82
1756899056.5011477,2
1756899056.5042973,40
1756899056.5051386,-11
1756899056.5156863,-95
1756899056.5159173,-126
1756899056.5161283,-83
1756899056.5163314,-8
1756899056.516537,48
1756899056.5183558,67
1756899056.5188382,56
1756899056.52083,32
1756899056.5228133,12
1756899056.5247571,22
1756899056.526806,59
1756899056.5286603,87
1756899056.5309503,75
1756899056.5325496,36
1756899056.5349326,15
1756899056.5365121,27
1756899056.5389566,35
1756899056.540474,3
1756899056.5428233,-40
1756899056.5448086,-35
1756899056.5679035,22
1756899056.5681589,64
1756899056.5683641,29
1756899056.5685716,-49
1756899056.5690517,-75
1756899056.569262,-13
1756899056.56946,68
1756899056.5696583,82
1756899056.5698915,32
1756899056.5700893,-13
1756899056.570287,-6
1756899056.5707552,42
1756899056.5709548,86
1756899056.5719008,102
1756899056.5739472,102
1756899056.5758746,97
1756899056.5777926,90
1756899056.5804987,91
1756899056.581779,110
1756899056.586273,134
1756899056.5867164,129
1756899056.587691,72
1756899056.5896637,-8
1756899056.5932205,-48
1756899056.5935457,-14
1756899056.5955215,58
1756899056.5975175,85
1756899056.5995255,31
1756899056.6029475,-55
1756899056.6035106,-80
1756899056.6090693,-11
1756899056.6093407,81
1756899056.609676,78
1756899056.6178756,-53
1756899056.6180239,-223
1756899056.6181247,-315
1756899056.618223,-298
1756899056.619677,-258
1756899056.621056,-299
1756899056.623036,-432
1756899056.6250503,-587
1756899056.6269662,-695
1756899056.628945,-744
1756899056.6325867,-769
1756899056.6331239,-816
1756899056.6348548,-914
1756899056.6367416,-1046
1756899056.6646812,-1148
1756899056.6647828,-1152
1756899056.664857,-1037
1756899056.6650774,-858
1756899056.6667023,-691
1756899056.6667485,-559
1756899056.6667912,-415
1756899056.666832,-222
1756899056.6673372,-12
1756899056.667386,141
1756899056.6674345,198
1756899056.6684651,195
1756899056.6690636,184
1756899056.6695125,186
1756899056.6696737,180
1756899056.6697164,155
1756899056.67011,136
1756899056.6720693,149
1756899056.6741078,188
1756899056.676269,227
1756899056.67828,252
1756899056.6801949,271
1756899056.6941686,298
1756899056.694382,329
1756899056.69454,345
1756899056.6948419,333
1756899056.6955945,298
1756899056.6957595,254
1756899056.6961002,221
1756899056.6962597,214
1756899056.7011445,230
1756899056.7014353,247
1756899056.7018037,246
1756899056.7045908,223
1756899056.7070134,208
1756899056.7167802,231
1756899056.7171252,280
1756899056.717648,309
1756899056.7177737,282
1756899056.7178338,223
1756899056.7178931,192
1756899056.7193916,218
1756899056.7214696,273
1756899056.723299,303
1756899056.7252963,283
1756899056.7272615,231
1756899056.7292862,189
1756899056.7311761,191
1756899056.7334287,249
1756899056.735894,344
1756899056.7370036,419
1756899056.7392378,421
1756899056.7411327,360
1756899056.7438502,314
1756899056.7473793,360
1756899056.7478762,472
1756899056.7490175,530
1756899056.751669,454
1756899056.7532206,290
1756899056.7550023,177
1756899056.756621,196
1756899056.7588801,300
1756899056.7607632,373
1756899056.7627497,351
1756899056.7657583,275
1756899056.7675362,220
1756899056.768508,221
1756899056.7703567,262
1756899056.7723386,301
1756899056.7743235,304
1756899056.7762315,266
1756899056.7782383,210
1756899056.7802176,171
1756899056.7822418,169
1756899056.7842627,189
1756899056.7865698,208
1756899056.7884636,228
1756899056.7901747,269
1756899056.79225,331
1756899056.794164,376
1756899056.7960505,369
1756899056.7982192,329
1756899056.8002775,308
1756899056.802013,320
1756899056.8049507,328
1756899056.80579,291
1756899056.807793,228
1756899056.8097599,202
1756899056.8119147,232
1756899056.813987,273
1756899056.8160114,279
1756899056.817551,256
1756899056.819503,262
1756899056.8217497,324
1756899056.82351,392
1756899056.8254259,390
1756899056.8303013,310
1756899056.830383,221
1756899056.8313007,198
1756899056.8358147,234
1756899056.836193,254
1756899056.83731,202
1756899056.8391392,108
1756899056.8411248,47
1756899056.8430753,71
1756899056.8472486,150
1756899056.8473191,217
1756899056.848982,219
1756899056.8509789,160
1756899056.8530202,93
1756899056.8552375,84
1756899056.8571513,150
1756899056.8591785,245
1756899056.8610957,293
1756899056.8630776,254
1756899056.8721914,167
1756899056.8723645,114
1756899056.8725555,145
1756899056.8726768,230
1756899056.8727946,294
1756899056.8747015,294
1756899056.8765745,239
1756899056.8792212,171
1756899056.8806734,123
1756899056.883045,112
1756899056.888091,138
1756899056.8936813,185
1756899056.8937821,209
1756899056.893863,164
1756899056.893909,56
1756899056.8988838,-32
1756899056.8990028,-15
1756899056.89907,107
1756899056.9001863,220
1756899056.902243,204
1756899056.9041777,56
1756899056.906119,-86
1756899056.9080827,-89
1756899056.9106636,44
1756899056.913146,161
1756899056.914147,124
1756899056.9160533,-52
1756899056.917965,-206
1756899056.9205105,-211
1756899056.922199,-98
1756899056.9241781,-7
1756899056.9258108,-33
1756899056.9277887,-148
1756899056.929705,-228
1756899056.9346561,-200
1756899056.93476,-102
1756899056.9356153,-35
1756899056.9375005,-61
1756899056.9405234,-143
1756899056.9414515,-191
1756899056.9434988,-150
1756899056.9543934,-59
1756899056.9562793,-8
1756899056.9630895,-34
1756899056.9683645,-87
1756899056.9684339,-98
1756899056.969262,-70
1756899056.9693794,-72
1756899056.9706943,-139
1756899056.9707515,-221
1756899056.9707987,-248
1756899056.9708586,-223
1756899056.9709055,-204
1756899056.970954,-216
1756899056.9710028,-220
1756899056.9734402,-182
1756899056.974878,-127
1756899056.9768047,-102
1756899056.9789228,-108
1756899056.9807386,-82
1756899056.9826903,-1
1756899056.9851809,70
1756899056.986634,61
1756899056.988575,-13
1756899056.9909332,-61
1756899056.9929826,-27
1756899056.9986432,37
1756899056.9994214,39
1756899056.9998462,-29
1756899057.0005212,-85
1756899057.018065,-73
1756899057.0181627,-23
1756899057.018402,-19
1756899057.0184488,-81
1756899057.0184925,-141
1756899057.0185351,-133
1756899057.0185783,-68
1756899057.0186205,-23
1756899057.018664,-41
1756899057.020041,-89
1756899057.0221047,-113
1756899057.0240893,-102
1756899057.0260575,-87
1756899057.0283291,-85
1756899057.0300398,-77
1756899057.032107,-61
1756899057.0340993,-73
1756899057.0358224,-142
1756899057.0387604,-220
1756899057.039865,-212
1756899057.0419781,-91
1756899057.0437443,47
1756899057.045764,71
1756899057.0477726,-37
1756899057.049936,-152
1756899057.0515015,-145
1756899057.0559988,-27
1756899057.0560923,77
1756899057.0574424,70
1756899057.0593426,-22
1756899057.0613415,-103
1756899057.0633123,-119
1756899057.0652635,-88
1756899057.0672412,-66
1756899057.069203,-73
1756899057.0726442,-92
1756899057.0732756,-94
1756899057.0751357,-79
1756899057.0771673,-74
1756899057.0790596,-99
1756899057.0810275,-141
1756899057.0830138,-161
1756899057.0854435,-127
1756899057.086942,-56
1756899057.088977,-4
1756899057.0920174,-10
1756899057.0928595,-46
1756899057.0948184,-49
1756899057.0968006,10
1756899057.0987177,88
1756899057.1007092,118
1756899057.1027436,77
1756899057.1047583,7
1756899057.1075468,-43
1756899057.108556,-62
1756899057.110627,-72
1756899057.1125882,-90
1756899057.1145613,-102
1756899057.1164095,-92
1756899057.1184971,-54
1756899057.120347,-6
1756899057.1223967,37
1756899057.125157,66
1756899057.1267486,69
1756899057.1286018,50
1756899057.130556,22
1756899057.1326232,0
1756899057.134484,-8
1756899057.13654,-16
1756899057.1385357,-51
1756899057.1405718,-116
1756899057.1424031,-172
1756899057.1442752,-162
1756899057.1519463,-66
1756899057.154542,73
1756899057.1554496,177
1756899057.155992,192
1756899057.1562219,143
1756899057.156429,100
1756899057.157957,121
1756899057.1598835,182
1756899057.1618543,205
1756899057.1637983,139
1756899057.1741016,8
1756899057.1743338,-102
1756899057.1747885,-117
1756899057.175007,-54
1756899057.1755037,8
1756899057.175714,14
1756899057.1776438,-15
1756899057.1794782,-18
1756899057.1815712,36
1756899057.18343,106
1756899057.185571,128
1756899057.1874743,88
1756899057.1894724,28
1756899057.191944,-5
1756899057.1954567,-15
1756899057.1958191,-33
1756899057.1971793,-86
1756899057.199413,-149
1756899057.2060359,-185
1756899057.2063055,-182
1756899057.2069168,-156
1756899057.207484,-140
1756899057.209082,-134
1756899057.2110105,-116
1756899057.2131376,-86
1756899057.2149284,-68
1756899057.2176554,-72
1756899057.2188613,-63
1756899057.2208297,0
1756899057.223057,98
1756899057.2247784,152
1756899057.2268836,107
1756899057.2289014,11
1756899057.2310712,-32
1756899057.2326345,27
1756899057.2348242,122
1756899057.2487254,141
1756899057.249139,52
1756899057.25156,-64
1756899057.251896,-118
1756899057.2521493,-87
1756899057.252458,-20
1756899057.252762,23
1756899057.2530606,27
1756899057.253268,8
1756899057.2541597,-10
1756899057.256103,-5
1756899057.2580843,31
1756899057.260159,77
1756899057.2621264,102
1756899057.2641613,85
1756899057.2666886,41
1756899057.2805836,-4
1756899057.2808657,-22
1756899057.281068,-6
1756899057.2812655,37
1756899057.28162,104
1756899057.2818205,167
1756899057.2821305,193
1756899057.2827,163
1756899057.2964263,109
1756899057.2966726,92
1756899057.296879,140
1756899057.2976158,211
1756899057.2978413,225
1756899057.2980962,161
1756899057.2983341,78
1756899057.320729,56
1756899057.338783,108
1756899057.343627,162
1756899057.3461514,157
1756899057.3475814,116
1756899057.348232,96
1756899057.3485076,105
1756899057.3487325,82
1756899057.3490982,-12
1756899057.3496237,-120
1756899057.3499756,-165
1756899057.3547933,-168
1756899057.357088,-242
1756899057.3573406,-452
1756899057.3575566,-713
1756899057.357758,-875
1756899057.357965,-888
1756899057.3582017,-846
1756899057.3586826,-857
1756899057.3588855,-909
1756899057.3592947,-904
1756899057.3595061,-790
1756899057.3606832,-613
1756899057.3609073,-448
1756899057.361107,-302
1756899057.3613214,-149
1756899057.3615181,-2
1756899057.3617246,105
1756899057.361922,168
1756899057.3621755,218
1756899057.362733,274
1756899057.362938,305
1756899057.3633506,282
1756899057.3635595,230
1756899057.3644323,210
1756899057.3669538,250
1756899057.3688426,309
1756899057.370298,335
1756899057.372179,317
1756899057.374317,284
1756899057.377504,270
1756899057.3789337,279
1756899057.3799992,296
1756899057.38202,309
1756899057.384023,316
1756899057.3888333,326
1756899057.3892696,343
1756899057.389988,354
1756899057.3919635,342
1756899057.3938477,309
1756899057.396957,296
1756899057.3976872,335
1756899057.399645,396
1756899057.401799,400
1756899057.4036465,313
1756899057.406241,204
1756899057.4127078,174
1756899057.4134004,243
1756899057.4136357,330
1756899057.4138794,346
1756899057.4155684,294
1756899057.420271,246
1756899057.4208486,247
1756899057.421357,273
1756899057.4234755,281
1756899057.4253461,270
1756899057.427397,267
1756899057.429241,277
1756899057.431489,276
1756899057.4333632,256
1756899057.4352949,252
1756899057.437037,281
1756899057.4390774,319
1756899057.4410253,323
1756899057.445876,288
1756899057.4463024,247
1756899057.4469674,232
1756899057.4517004,232
1756899057.451998,214
1756899057.4527175,180
1756899057.4607055,169
1756899057.461028,204
1756899057.4613519,264
1756899057.4616318,298
1756899057.4632828,294
1756899057.4649875,285
1756899057.4669666,296
1756899057.468557,301
1756899057.4707687,252
1756899057.4724996,158
1756899057.4746509,88
1756899057.4764218,94
1756899057.481116,144
1756899057.4814396,161
1756899057.4836051,122
1756899057.488928,87
1756899057.4893048,121
1756899057.4895134,211
1756899057.4901216,287
1756899057.492188,300
1756899057.4940202,266
1756899057.4978573,225
1756899057.4980915,191
1756899057.4999382,156
1756899057.502077,126
1756899057.5040236,118
1756899057.5070198,132
1756899057.5107505,144
1756899057.5109687,143
1756899057.5118315,143
1756899057.51592,159
1756899057.516179,172
1756899057.5177689,152
1756899057.5196743,109
1756899057.5255556,95
1756899057.5257812,138
1756899057.5259874,200
1756899057.527549,207
1756899057.5295048,147
1756899057.531497,81
1756899057.533392,75
1756899057.5354545,113
1756899057.53739,130
1756899057.5393553,91
1756899057.5413227,30
1756899057.5440037,8
1756899057.5451002,35
1756899057.548285,64
1756899057.5573478,63
1756899057.55761,57
1756899057.5578218,85
1756899057.5580308,134
1756899057.5588086,150
1756899057.559028,101
1756899057.560908,29
1756899057.5628717,-9
1756899057.5650227,5
1756899057.5668256,31
1756899057.568881,33
1756899057.570892,11
1756899057.5738368,-10
1756899057.574837,-14
1756899057.5765588,-4
1756899057.578808,12
1756899057.5807488,25
1756899057.585423,23
1756899057.5857985,-2
1756899057.5866678,-39
1756899057.5884793,-62
1756899057.5903137,-63
1756899057.592303,-56
1756899057.594661,-59
1756899057.596214,-57
1756899057.5983458,-29
1756899057.6002498,15
1756899057.6023498,36
1756899057.61081,7
1756899057.6110644,-53
1756899057.6177561,-100
1756899057.6181822,-113
1756899057.6370428,-114
1756899057.6373596,-137
1756899057.6375587,-188
1756899057.6377537,-243
1756899057.6379488,-267
1756899057.6381447,-250
1756899057.638341,-215
1756899057.6385367,-184
1756899057.6430378,-175
1756899057.6433148,-186
1756899057.643575,-205
1756899057.6438296,-225
1756899057.6482344,-250
1756899057.6485527,-276
1756899057.6495209,-287
1756899057.6583436,-266
1756899057.65933,-226
1756899057.6618695,-206
1756899057.6621132,-228
1756899057.6637177,-268
1756899057.6641905,-277
1756899057.6643932,-247
1756899057.6645906,-224
1756899057.6647856,-246
1756899057.6650014,-301
1756899057.6651986,-335
1756899057.665396,-323
1756899057.6661339,-290
1756899057.6671257,-263
1756899057.669146,-238
1756899057.671588,-193
1756899057.6740146,-136
1756899057.6748483,-106
1756899057.6768842,-125
1756899057.6788197,-160
1756899057.6809154,-167
1756899057.6843617,-138
1756899057.684728,-114
1756899057.686817,-131
1756899057.6901484,-178
1756899057.6907613,-206
1756899057.6956732,-188
1756899057.698559,-136
1756899057.698777,-86
1756899057.6989765,-72
1756899057.7004633,-94
1756899057.7025974,-136
1756899057.7051005,-172
1756899057.7063735,-185
1756899057.7084463,-183
1756899057.7104244,-183
1756899057.712507,-199
1756899057.716523,-216
1756899057.7169094,-214
1756899057.7182803,-185
1756899057.7201881,-140
1756899057.722577,-90
1756899057.7244253,-51
1756899057.7264578,-40
1756899057.7280731,-71
1756899057.7300117,-129
1756899057.7319896,-166
1756899057.7339182,-146
1756899057.7359154,-91
1756899057.7378848,-66
1756899057.7397597,-115
1756899057.7418194,-203
1756899057.743713,-245
1756899057.7544522,-192
1756899057.7547238,-84
1756899057.755176,-6
1756899057.7557023,-8
1756899057.7559056,-72
1756899057.7561028,-151
1756899057.757478,-196
1756899057.759395,-191
1756899057.7614753,-151
1756899057.763453,-114
1756899057.7658677,-115
1756899057.7679782,-156
1756899057.7692842,-203
1756899057.7713354,-191
1756899057.7733474,-108
1756899057.775095,3
1756899057.777162,72
1756899057.779194,71
1756899057.8007994,32
1756899057.8010674,-2
1756899057.8012667,-19
1756899057.8014622,-38
1756899057.801802,-68
1756899057.8020194,-99
1756899057.8022156,-115
1756899057.803159,-126
1756899057.8036227,-156
1756899057.8038528,-203
1756899057.80405,-222
1756899057.8042471,-172
1756899057.804716,-72
1756899057.8072267,-2
1756899057.808596,-21
1756899057.8105934,-97
1756899057.8199255,-136
1756899057.8202636,-98
1756899057.8204916,-30
1756899057.8206906,-13
1756899057.8208869,-67
1756899057.8237565,-130
1756899057.8244832,-136
1756899057.8263595,-84
1756899057.8283277,-21
1756899057.8331316,8
1756899057.8333516,8
1756899057.8340938,14
1756899057.8360994,42
1756899057.8380427,83
1756899057.8400161,113
1756899057.8420448,113
1756899057.8476863,74
1756899057.847929,14
1756899057.8481262,-39
1756899057.8524635,-65
1756899057.8527818,-75
1756899057.8539655,-94
1756899057.856311,-128
1756899057.8577247,-152
1756899057.863026,-140
1756899057.8632388,-99
1756899057.8635962,-65
1756899057.865738,-69
1756899057.867556,-104
1756899057.8695471,-132
1756899057.8727636,-132
1756899057.8734496,-115
1756899057.8756635,-110
1756899057.8774228,-122
1756899057.8835003,-124
1756899057.8837044,-95
1756899057.8839247,-38
1756899057.8853483,19
1756899057.8879876,50
1756899057.8891966,54
1756899057.8949232,48
1756899057.900262,42
1756899057.9004884,32
1756899057.9006858,6
1756899057.9010146,-37
1756899057.9049227,-74
1756899057.9051874,-79
1756899057.9057503,-47
1756899057.9069662,-7
1756899057.91039,2
1756899057.910907,-25
1756899057.9159782,-55
1756899057.9162092,-47
1756899057.9173274,-1
1756899057.9188547,29
1756899057.936935,5
1756899057.9375188,-51
1756899057.9377286,-83
1756899057.9379249,-64
1756899057.9383385,-13
1756899057.9385386,47
1756899057.9387343,113
1756899057.9389296,192
1756899057.9391239,262
1756899057.939319,285
1756899057.9402432,253
1756899057.942284,214
1756899057.9443746,203
1756899057.9466157,195
1756899057.953073,136
1756899057.9536452,19
1756899057.9539053,-100
1756899057.9541051,-154
1756899057.9583888,-142
1756899057.9586828,-110
1756899057.9599714,-81
1756899057.9619417,-39
1756899057.9665575,30
1756899057.9667852,101
1756899057.9679117,126
1756899057.9698057,93
1756899057.97186,44
1756899057.9737117,20
1756899057.9757502,26
1756899057.9777675,30
1756899057.9839995,1
1756899057.9842122,-67
1756899057.9845564,-149
1756899057.987991,-196
1756899057.9882202,-174
1756899057.9895124,-102
1756899057.9916985,-44
1756899057.995666,-67
1756899057.9958885,-176
1756899058.002626,-314
1756899058.0028641,-420
1756899058.0030615,-495
1756899058.0032592,-590
1756899058.0051951,-725
1756899058.0072029,-867
1756899058.009186,-972
1756899058.0140228,-1034
1756899058.014274,-1080
1756899058.0150623,-1112
1756899058.0211613,-1087
1756899058.0213964,-967
1756899058.0262034,-778
1756899058.0264766,-592
1756899058.0266757,-451
1756899058.0268755,-330
1756899058.0288932,-176
1756899058.0310502,19
1756899058.0328126,205
1756899058.034811,321
1756899058.0389998,357
1756899058.0392184,350
1756899058.0406122,334
1756899058.0425808,308
1756899058.0445108,264
1756899058.0474246,213
1756899058.0527701,186
1756899058.053079,183
1756899058.053277,168
1756899058.0563688,112
1756899058.0566528,42
1756899058.0584617,20
1756899058.0604525,65
1756899058.0623865,124
1756899058.0663674,134
1756899058.0665884,107
1756899058.068205,121
1756899058.070176,206
1756899058.0721378,293
1756899058.0740128,291
1756899058.0761762,208
1756899058.0780191,141
1756899058.0800836,161
1756899058.0819807,231
1756899058.088887,251
1756899058.089114,189
1756899058.0893147,113
1756899058.0919359,106
1756899058.092192,161
1756899058.0985951,210
1756899058.0988255,216
1756899058.099019,209
1756899058.1003563,225
1756899058.1041965,240
1756899058.1045907,207
1756899058.1055558,130
1756899058.1076157,76
1756899058.1098852,95
1756899058.11191,153
1756899058.1138842,173
1756899058.1153502,126
1756899058.1173196,63
1756899058.122547,57
1756899058.1227708,108
1756899058.1231306,152
1756899058.1251333,133
1756899058.1271546,78
1756899058.1291788,58
1756899058.131043,91
1756899058.1330519,132
1756899058.1350563,134
1756899058.1369905,113
1756899058.1454215,129
1756899058.1456623,198
1756899058.1458604,264
1756899058.1460564,252
1756899058.1467426,166
1756899058.148744,74
1756899058.1507905,44
1756899058.1525896,66
1756899058.1547575,79
1756899058.1566327,49
1756899058.1586943,8
1756899058.1605623,2
1756899058.1631594,41
1756899058.1667237,84
1756899058.1669457,84
1756899058.1697958,44
1756899058.1703126,8
1756899058.1723678,6
1756899058.1743388,27
1756899058.1763856,27
1756899058.179281,-5
1756899058.1801293,-25
1756899058.182238,4
1756899058.1840975,63
1756899058.1882808,95
1756899058.1884983,70
1756899058.1900628,27
1756899058.1990817,23
1756899058.199374,57
1756899058.204712,69
1756899058.2051618,22
1756899058.2053695,-50
1756899058.205565,-79
1756899058.205762,-45
1756899058.205974,-2
1756899058.2077415,-3
1756899058.209855,-35
1756899058.212905,-35
1756899058.2136812,12
1756899058.2158573,61
1756899058.2175756,56
1756899058.2196467,0
1756899058.2215717,-50
1756899058.2235057,-45
1756899058.2275493,2
1756899058.2278068,38
1756899058.229417,25
1756899058.2313378,-27
1756899058.2333748,-70
1756899058.2363913,-65
1756899058.2374196,-14
1756899058.2510498,37
1756899058.2513006,46
1756899058.2514963,13
1756899058.2516928,-15
1756899058.2518885,-5
1756899058.2520833,32
1756899058.2522783,47
1756899058.2528894,9
1756899058.254996,-58
1756899058.274303,-110
1756899058.274536,-137
1756899058.2747319,-152
1756899058.2749283,-165
1756899058.275123,-168
1756899058.2753181,-146
1756899058.2755125,-111
1756899058.2757063,-91
1756899058.2759004,-93
1756899058.2760956,-98
1756899058.2766705,-79
1756899058.278549,-44
1756899058.2805474,-26
1756899058.29359,-52
1756899058.293833,-124
1756899058.2940438,-199
1756899058.2942405,-224
1756899058.2945442,-184
1756899058.2947404,-119
1756899058.2949355,-97
1756899058.2991233,-144
1756899058.2993853,-224
1756899058.3000934,-267
1756899058.3020813,-243
1756899058.3041103,-194
1756899058.3267603,-185
1756899058.3269877,-236
1756899058.3272443,-304
1756899058.328735,-339
1756899058.3304749,-330
1756899058.335151,-311
1756899058.3355331,-306
1756899058.3369596,-300
1756899058.3374007,-263
1756899058.3376076,-202
1756899058.3378048,-167
1756899058.3380008,-194
1756899058.3381963,-255
1756899058.3383927,-277
1756899058.3385885,-219
1756899058.3387825,-121
1756899058.3460248,-69
1756899058.3464394,-111
1756899058.3479686,-207
1756899058.3595285,-266
1756899058.3617592,-234
1756899058.3619905,-140
1756899058.3621886,-63
1756899058.364286,-62
1756899058.365015,-126
1756899058.3652146,-192
1756899058.365412,-204
1756899058.365608,-170
1756899058.3658054,-149
1756899058.3660014,-174
1756899058.366199,-211
1756899058.3692505,-206
1756899058.3694553,-158
1756899058.3804464,-121
1756899058.380914,-136
1756899058.3811243,-172
1756899058.3815444,-154
1756899058.3817496,-78
1756899058.3819447,-26
1756899058.38279,-79
1756899058.384857,-211
1756899058.3867307,-308
1756899058.3885853,-295
1756899058.4230413,-218
1756899058.4234092,-177
1756899058.423713,-199
1756899058.424049,-221
1756899058.4243395,-188
1756899058.4250412,-122
1756899058.4264958,-88
1756899058.426804,-94
1756899058.4271436,-92
1756899058.4274447,-52
1756899058.4277442,-11
1756899058.4280508,-20
1756899058.429115,-76
1756899058.4294202,-117
1756899058.42971,-116
1756899058.4300463,-98
1756899058.4332294,-103
1756899058.43344,-121
1756899058.433711,-125
1756899058.433931,-124
1756899058.4341283,-153
1756899058.4343252,-211
1756899058.4354942,-252
1756899058.4371428,-240
1756899058.4378314,-207
1756899058.4460287,-206
1756899058.473507,-233
1756899058.476462,-233
1756899058.4768207,-191
1756899058.4771502,-159
1756899058.4788003,-187
1756899058.4790077,-239
1756899058.4792044,-228
1756899058.479401,-137
1756899058.4795985,-54
1756899058.4797947,-74
1756899058.4799933,-170
1756899058.4801888,-216
1756899058.480385,-135
1756899058.4806087,2
1756899058.4808044,54
1756899058.481002,-28
1756899058.4811978,-154
1756899058.4813933,-202
1756899058.4815888,-155
1756899058.4817858,-108
1756899058.481982,-133
1756899058.4830396,-195
1756899058.4850018,-207
1756899058.4869864,-154
1756899058.4899006,-121
1756899058.490877,-163
1756899058.4931228,-223
1756899058.4966784,-206
1756899058.4970973,-111
1756899058.500233,-42
1756899058.500732,-78
1756899058.5036669,-160
1756899058.5052714,-174
1756899058.5070457,-97
1756899058.508634,-20
1756899058.5106103,-26
1756899058.5125382,-87
1756899058.514475,-121
1756899058.5168467,-105
1756899058.5183766,-85
1756899058.5221922,-100
1756899058.5225134,-125
1756899058.5242796,-131
1756899058.5262427,-129
1756899058.528271,-151
1756899058.5302393,-193
1756899058.5322042,-215
1756899058.5341725,-205
1756899058.5361187,-193
1756899058.5392292,-200
1756899058.5400014,-202
1756899058.5420082,-176
1756899058.5454397,-146
1756899058.5459068,-154
1756899058.5478563,-202
1756899058.5498347,-234
1756899058.5519025,-201
1756899058.5537984,-130
1756899058.555826,-85
1756899058.5578046,-101
1756899058.5597336,-150
1756899058.5616832,-186
1756899058.5638902,-194
1756899058.5661962,-192
1756899058.5675492,-198
1756899058.5714347,-212
1756899058.5716631,-228
1756899058.5739696,-237
1756899058.5754514,-247
1756899058.577488,-263
1756899058.579379,-279
1756899058.5816221,-274
1756899058.5832958,-221
1756899058.5852618,-135
1756899058.5872467,-63
1756899058.5892715,-42
1756899058.5912073,-57
1756899058.5931787,-62
1756899058.5951283,-34
1756899058.6001153,-6
1756899058.6035724,-20
1756899058.603942,-72
1756899058.6049953,-109
1756899058.6051967,-109
1756899058.6069307,-108
1756899058.608891,-145
1756899058.6108701,-195
1756899058.612811,-182
1756899058.6151454,-77
1756899058.6170418,47
1756899058.6188571,75
1756899058.6206517,-11
1756899058.6229033,-115
1756899058.6245708,-139
1756899058.626723,-86
1756899058.6285653,-42
1756899058.630881,-63
1756899058.6325586,-115
1756899058.634482,-137
1756899058.6364088,-129
1756899058.6383271,-132
1756899058.6402886,-158
1756899058.642291,-161
1756899058.646426,-101
1756899058.646685,-17
1756899058.6481762,20
1756899058.650131,-15
1756899058.6523275,-77
1756899058.654153,-100
1756899058.6561313,-79
1756899058.6580658,-50
1756899058.6600015,-45
1756899058.6647737,-71
1756899058.6663117,-111
1756899058.6665244,-148
1756899058.6679132,-167
1756899058.6698582,-162
1756899058.6717892,-134
1756899058.673915,-118
1756899058.675779,-141
1756899058.677719,-194
1756899058.679659,-221
1756899058.6816378,-198
1756899058.6841729,-171
1756899058.6855433,-220
1756899058.687526,-367
1756899058.6895256,-541
1756899058.6985657,-647
1756899058.7008057,-689
1756899058.7012594,-764
1756899058.7015092,-939
1756899058.7017112,-1140
1756899058.7019095,-1214
1756899058.7032242,-1091
1756899058.7052379,-866
1756899058.7071915,-695
1756899058.7091908,-617
1756899058.7111378,-535
1756899058.7131076,-362
1756899058.7150376,-122
1756899058.7170162,78
1756899058.7188857,181
1756899058.7209165,217
1756899058.724191,236
1756899058.7248328,240
1756899058.7268152,213
1756899058.7287664,178
1756899058.7307694,182
1756899058.732703,221
1756899058.7351627,240
1756899058.7365785,202
1756899058.7385895,145
1756899058.745733,143
1756899058.7477224,221
1756899058.747953,309
1756899058.7481492,332
1756899058.7483718,280
1756899058.7503853,213
1756899058.7523577,197
1756899058.7543051,239
1756899058.7563019,288
1756899058.7583673,289
1756899058.7601893,243
1756899058.762426,205
1756899058.7648468,226
1756899058.768325,305
1756899058.7688293,381
1756899058.7706215,398
1756899058.7719386,357
1756899058.773995,315
1756899058.7760634,323
1756899058.7780254,371
1756899058.7802792,401
1756899058.7818625,367
1756899058.7838326,272
1756899058.7857907,173
1756899058.7877376,126
1756899058.7898705,153
1756899058.797911,222
1756899058.7996008,276
1756899058.7998168,286
1756899058.8000126,262
1756899058.8002095,238
1756899058.8036923,236
1756899058.803983,241
1756899058.8058422,237
1756899058.8074496,227
1756899058.8093834,235
1756899058.8113976,265
1756899058.8133044,284
1756899058.8153014,262
1756899058.8188772,221
1756899058.8194747,215
1756899058.8293366,261
1756899058.8296852,302
1756899058.8300068,266
1756899058.8303297,157
1756899058.8306775,63
1756899058.831016,65
1756899058.8332806,142
1756899058.8361254,213
1756899058.8368304,224
1756899058.845726,209
1756899058.8487184,238
1756899058.8491077,316
1756899058.8518894,378
1756899058.852108,367
1756899058.8523057,286
1756899058.852779,199
1756899058.8529966,159
1756899058.8546164,165
1756899058.856525,184
1756899058.8588362,179
1756899058.8605072,142
1756899058.8624513,93
1756899058.8644252,66
1756899058.8663712,80
1756899058.8682997,117
1756899058.871108,135
1756899058.8723052,102
1756899058.8744943,25
1756899058.8763325,-46
1756899058.8782513,-67
1756899058.8826184,-28
1756899058.8828712,46
1756899058.88408,115
1756899058.8861196,152
1756899058.8880725,164
1756899058.8900046,166
1756899058.8973758,169
1756899058.8977814,166
1756899058.9000196,145
1756899058.9015415,107
1756899058.907889,69
1756899058.9083517,61
1756899058.9085736,93
1756899058.9087741,149
1756899058.9116168,191
1756899058.9118273,198
1756899058.9120243,174
1756899058.9135966,144
1756899058.9155657,132
1756899058.9175272,136
1756899058.919482,109
1756899058.9215276,27
1756899058.9234393,-80
1756899058.9253817,-146
1756899058.927712,-133
1756899058.929431,-75
1756899058.931296,-35
1756899058.935645,-30
1756899058.9359236,-21
1756899058.9372108,20
1756899058.9463422,57
1756899058.9642956,44
1756899058.964589,13
1756899058.9648101,38
1756899058.965011,137
1756899058.9652233,220
1756899058.9654212,181
1756899058.9660203,44
1756899058.9668777,-57
1756899058.967349,-25
1756899058.9675612,85
1756899058.9677944,122
1756899058.9680054,22
1756899058.9700556,-127
1756899058.975587,-192
1756899058.976665,-139
1756899058.9768822,-58
1756899058.9778185,-46
1756899058.9783063,-108
1756899058.9787748,-157
1756899058.9789815,-128
1756899058.9804487,-53
1756899058.9826577,-23
1756899058.9844627,-87
1756899058.9866312,-197
1756899058.9883294,-258
1756899058.9902565,-233
1756899058.9922402,-177
1756899058.9943182,-184
1756899058.9978838,-274
1756899058.9981203,-366
1756899059.0001209,-359
1756899059.0077496,-252
1756899059.0085378,-140
1756899059.0090048,-123
1756899059.0092528,-208
1756899059.0120854,-304
1756899059.0123281,-323
1756899059.0138292,-255
1756899059.0157912,-172
1756899059.0186574,-143
1756899059.0197687,-184
1756899059.021846,-241
1756899059.0236292,-250
1756899059.0257945,-199
1756899059.033145,-137
1756899059.0382233,-131
1756899059.0414488,-196
1756899059.0446305,-276
1756899059.0447347,-298
1756899059.044818,-253
1756899059.0448992,-203
1756899059.0450175,-210
1756899059.0451262,-266
1756899059.0452073,-306
1756899059.0558145,-279
1756899059.0561829,-206
1756899059.0574257,-153
1756899059.0575383,-154
1756899059.0576365,-191
1756899059.057733,-218
1756899059.0609965,-212
1756899059.06106,-184
1756899059.0628433,-159
1756899059.0649142,-151
1756899059.0670373,-164
1756899059.0689046,-183
1756899059.0709174,-178
1756899059.0731053,-132
1756899059.0750983,-62
1756899059.0767114,-26
1756899059.0786474,-58
1756899059.0806313,-123
1756899059.082706,-151
1756899059.0846133,-116
1756899059.0865376,-63
1756899059.0885832,-62
1756899059.0904212,-119
1756899059.0925555,-171
1756899059.0945323,-153
1756899059.0971146,-75
1756899059.0984235,-4
1756899059.1015556,12
1756899059.1023927,-12
1756899059.104361,-24
1756899059.106466,-16
1756899059.1082518,-24
1756899059.1101189,-67
1756899059.1121955,-111
1756899059.114261,-117
1756899059.1161385,-98
1756899059.1179738,-109
1756899059.1201077,-169
1756899059.1220713,-235
1756899059.1239147,-247
1756899059.1259158,-196
1756899059.1279573,-136
1756899059.1302803,-116
1756899059.1318831,-130
1756899059.1354737,-138
1756899059.1357746,-126
1756899059.1375744,-104
1756899059.1401665,-80
1756899059.1416793,-52
1756899059.1436272,-20
1756899059.146567,-5
1756899059.1494555,-15
1756899059.149534,-25
1756899059.1514945,-11
1756899059.1535645,12
1756899059.1558588,-3
1756899059.1573737,-61
1756899059.159433,-120
1756899059.1617746,-135
1756899059.1632953,-120
1756899059.1652098,-121
1756899059.1671705,-162
1756899059.1691067,-203
1756899059.1716685,-207
1756899059.1730876,-177
1756899059.1751688,-149
1756899059.1768968,-140
1756899059.1789105,-140
1756899059.1810958,-135
1756899059.1828744,-129
1756899059.1849208,-129
1756899059.188275,-120
1756899059.1887467,-93
1756899059.1908157,-63
1756899059.1927772,-59
1756899059.1948123,-80
1756899059.1965852,-94
1756899059.1986246,-84
1756899059.2139096,-69
1756899059.2143805,-83
1756899059.2144601,-121
1756899059.2145274,-149
1756899059.2146182,-145
1756899059.2146842,-124
1756899059.214751,-106
1756899059.2148197,-87
1756899059.2233505,-57
1756899059.22354,-31
1756899059.2235942,-33
1756899059.223661,-59
1756899059.2260797,-74
1756899059.226248,-60
1756899059.2282197,-41
1756899059.2300413,-49
1756899059.2319417,-78
1756899059.2354302,-107
1756899059.2359395,-138
1756899059.2379684,-182
1756899059.2398136,-227
1756899059.2418137,-227
1756899059.2439497,-168
1756899059.2457469,-102
1756899059.2551334,-97
1756899059.2552662,-144
1756899059.2553542,-170
1756899059.255474,-118
1756899059.2555728,-14
1756899059.2580516,67
1756899059.2595665,78
1756899059.2615016,35
1756899059.2634354,-15
1756899059.265419,-44
1756899059.2673006,-45
1756899059.2702808,-26
1756899059.2712355,-6
1756899059.276082,-12
1756899059.2761385,-46
1756899059.2771616,-76
1756899059.2790844,-56
1756899059.2818167,13
1756899059.2830386,80
1756899059.2884886,94
1756899059.2886236,64
1756899059.2889812,48
1756899059.290929,86
1756899059.292876,147
1756899059.2948356,153
1756899059.2968483,72
1756899059.2989655,-39
1756899059.3115966,-86
1756899059.3117304,-33
1756899059.3120346,63
1756899059.3132231,117
1756899059.3135092,101
1756899059.3135695,58
1756899059.3136308,49
1756899059.314731,80
1756899059.3164496,114
1756899059.3186834,120
1756899059.3210857,99
1756899059.3223636,68
1756899059.3247802,41
1756899059.3263242,22
1756899059.3283794,13
1756899059.3302279,9
1756899059.3322234,13
1756899059.3341813,33
1756899059.3361027,78
1756899059.3380864,132
1756899059.3400335,150
1756899059.3420587,108
1756899059.3439636,43
1756899059.3598213,20
1756899059.360101,57
1756899059.3601737,91
1756899059.360242,49
1756899059.3603554,-67
1756899059.3604302,-173
1756899059.3604918,-205
1756899059.3605523,-180
1756899059.3624952,-171
1756899059.3637607,-217
1756899059.365767,-300
1756899059.3675709,-389
1756899059.3695736,-486
1756899059.3717093,-612
1756899059.3734934,-756
1756899059.3754437,-870
1756899059.3774657,-925
1756899059.379477,-929
1756899059.38167,-914
1756899059.3834662,-883
1756899059.3884647,-823
1756899059.3885696,-725
1756899059.3892334,-599
1756899059.391346,-455
1756899059.3931377,-286
1756899059.3953571,-112
1756899059.3985794,6
1756899059.399069,24
1756899059.4043229,-15
1756899059.4044287,-4
1756899059.405182,104
1756899059.408854,235
1756899059.4089572,273
1756899059.41087,206
1756899059.41348,146
1756899059.4147425,195
1756899059.416706,325
1756899059.418688,417
1756899059.4206734,399
1756899059.4226332,326
1756899059.4247203,286
1756899059.4266832,293
1756899059.4292126,281
1756899059.430734,210
1756899059.4326146,121
1756899059.4348545,86
1756899059.4365804,115
1756899059.4387307,153
1756899059.4451566,151
1756899059.4453926,125
1756899059.4455912,118
1756899059.4574437,148
1756899059.457823,185
1756899059.4580312,202
1756899059.458227,201
1756899059.460506,207
1756899059.4607296,233
1756899059.461251,265
1756899059.461452,291
1756899059.4620528,310
1756899059.4640858,326
1756899059.466113,335
1756899059.4682264,337
1756899059.4699867,346
1756899059.476274,364
1756899059.4766011,373
1756899059.4768984,353
1756899059.4778101,314
1756899059.4798555,283
1756899059.4817932,279
1756899059.4836915,287
1756899059.4857187,277
1756899059.4876788,250
1756899059.489674,225
1756899059.491609,208
1756899059.493604,193
1756899059.4961102,170
1756899059.4987104,149
1756899059.4997852,137
1756899059.5030558,129
1756899059.5036976,106
1756899059.5267797,75
1756899059.5272744,71
1756899059.5275226,118
1756899059.527726,196
1756899059.5279243,251
1756899059.528413,248
1756899059.5314636,214
1756899059.53176,210
1756899059.532068,270
1756899059.532276,353
1756899059.532483,383
1756899059.532753,325
1756899059.5335553,226
1756899059.533804,172
1756899059.5340028,183
1756899059.5348163,197
1756899059.5375984,157
1756899059.538933,77
1756899059.5428972,30
1756899059.5430331,53
1756899059.5447626,104
1756899059.5478232,122
1756899059.5485203,104
1756899059.5508428,106
1756899059.552814,153
1756899059.5544155,206
1756899059.5563269,209
1756899059.5583265,159
1756899059.5628085,103
1756899059.5631084,84
1756899059.5641775,97
1756899059.5661955,102
1756899059.5681028,86
1756899059.5702796,69
1756899059.5721126,86
1756899059.5740378,131
1756899059.575994,167
1756899059.577939,167
1756899059.5798843,142
1756899059.5819097,129
1756899059.5838842,146
1756899059.5863616,162
1756899059.587868,126
1756899059.5898569,36
1756899059.5918083,-53
1756899059.5955837,-84
1756899059.5964715,-51
1756899059.599855,-6
1756899059.6000714,0
1756899059.6017954,-33
1756899059.6036804,-68
1756899059.6056712,-59
1756899059.6085413,8
1756899059.6094224,98
1756899059.611415,143
1756899059.6147985,100
1756899059.6159713,-3
1756899059.6173782,-79
1756899059.619318,-69
1756899059.6212263,-5
1756899059.6246455,22
1756899059.6270792,-37
1756899059.6271422,-138
1756899059.6290874,-190
1756899059.6319265,-156
1756899059.633224,-79
1756899059.635153,-27
1756899059.6372302,-34
1756899059.6452014,-73
1756899059.6488109,-106
1756899059.6490498,-96
1756899059.6492474,-39
1756899059.6494431,28
1756899059.6496398,54
1756899059.6508734,14
1756899059.652784,-54
1756899059.657773,-95
1756899059.6580775,-102
1756899059.6591156,-118
1756899059.6615758,-181
1756899059.6629047,-263
1756899059.6649985,-311
1756899059.6668892,-313
1756899059.6685247,-318
1756899059.6705701,-365
1756899059.6725476,-420
1756899059.6744957,-422
1756899059.676382,-356
1756899059.6788068,-273
1756899059.6803036,-222
1756899059.6823757,-207
1756899059.6845257,-185
1756899059.6862621,-149
1756899059.689146,-131
1756899059.6904798,-143
1756899059.693723,-153
1756899059.6969368,-136
1756899059.6972191,-128
1756899059.6985314,-197
1756899059.7074518,-341
1756899059.7077045,-451
1756899059.7079031,-425
1756899059.708101,-292
1756899059.7082982,-206
1756899059.7173924,-265
1756899059.717641,-391
1756899059.7178433,-412
1756899059.71804,-266
1756899059.7182407,-75
1756899059.7197037,-11
1756899059.7216341,-105
1756899059.723583,-227
1756899059.7255282,-256
1756899059.7275858,-198
1756899059.7296507,-156
1756899059.7333465,-188
1756899059.7335699,-253
1756899059.7368417,-278
1756899059.737561,-244
1756899059.744883,-192
1756899059.745116,-171
1756899059.7453132,-193
1756899059.7455096,-230
1756899059.74722,-249
1756899059.7492483,-229
1756899059.7518578,-181
1756899059.7533572,-144
1756899059.7558672,-138
1756899059.7570202,-149
1756899059.758988,-133
1756899059.7612045,-81
1756899059.7630236,-48
1756899059.7653697,-80
1756899059.7667828,-153
1756899059.7688901,-196
1756899059.770832,-181
1756899059.7727878,-166
1756899059.7749326,-228
1756899059.7767034,-347
1756899059.778814,-421
1756899059.7815762,-377
1756899059.7834113,-254
1756899059.7856104,-162
1756899059.786528,-156
1756899059.7889643,-193
1756899059.7905207,-220
1756899059.7924898,-230
1756899059.794457,-240
1756899059.7966912,-248
1756899059.7984457,-242
1756899059.8194003,-241
1756899059.819738,-278
1756899059.8200736,-339
1756899059.8202803,-349
1756899059.8205059,-267
1756899059.8207033,-150
1756899059.8208997,-89
1756899059.8210952,-107
1756899059.8212924,-142
1756899059.8214865,-150
1756899059.8216858,-151
1756899059.8231218,-194
1756899059.823841,-264
1756899059.8263907,-306
1756899059.8278801,-295
1756899059.8297584,-280
1756899059.831765,-302
1756899059.8338501,-343
1756899059.835695,-347
1756899059.8376627,-299
1756899059.8445702,-235
1756899059.8448129,-191
1756899059.845015,-176
1756899059.8455355,-192
1756899059.847534,-237
1756899059.8495028,-283
1756899059.851827,-289
1756899059.8605332,-253
1756899059.8740225,-226
1756899059.874332,-250
1756899059.8759518,-293
1756899059.878568,-273
1756899059.8787873,-175
1756899059.8789835,-85
1756899059.879179,-99
1756899059.8793743,-199
1756899059.8795686,-282
1756899059.8797624,-283
1756899059.8805737,-246
1756899059.8883166,-239
1756899059.8993912,-268
1756899059.9094625,-294
1756899059.9097733,-302
1756899059.9099753,-326
1756899059.9101727,-377
1756899059.9103682,-401
1756899059.9106214,-356
1756899059.9108193,-279
1756899059.911016,-264
1756899059.9112117,-347
1756899059.91141,-454
1756899059.911608,-486
1756899059.9118137,-420
1756899059.9120095,-332
1756899059.913603,-304
1756899059.9138637,-340
1756899059.9140632,-388
1756899059.9142587,-393
1756899059.9185655,-346
1756899059.918826,-277
1756899059.919117,-239
1756899059.9215622,-258
1756899059.922185,-312
1756899059.9258153,-344
1756899059.9260411,-319
1756899059.9456978,-275
1756899059.9459233,-281
1756899059.94612,-346
1756899059.9463158,-400
1756899059.9478245,-375
1756899059.9483395,-285
1756899059.9489374,-220
1756899059.9491436,-239
1756899059.951657,-296
1756899059.9524186,-300
1756899059.9526584,-219
1756899059.9530413,-114
1756899059.953246,-68
1756899059.954151,-106
1756899059.9556277,-181
1756899059.9575696,-232
1756899059.959666,-228
1756899059.961533,-199
1756899059.9634914,-200
1756899059.9654984,-246
1756899059.9735634,-296
1756899059.975799,-285
1756899059.9760194,-204
1756899059.9762187,-109
1756899059.9782372,-74
1756899059.9784825,-100
1756899059.9798198,-129
1756899059.9811726,-118
1756899059.983242,-95
1756899059.985156,-110
1756899059.9871507,-159
1756899059.9891188,-195
1756899060.000434,-203
1756899060.0007887,-222
1756899060.0033424,-280
1756899060.0035625,-338
1756899060.0037928,-330
1756899060.0039923,-249
1756899060.004188,-168
1756899060.0064561,-152
1756899060.0075617,-182
1756899060.0110364,-184
1756899060.0113294,-125
1756899060.0128696,-48
1756899060.014767,-12
1756899060.016658,-32
1756899060.0214682,-71
1756899060.0244184,-86
1756899060.024755,-85
1756899060.024975,-103
1756899060.0269568,-157
1756899060.028422,-235
1756899060.0303757,-317
1756899060.0323145,-392
1756899060.0343258,-458
1756899060.0364585,-526
1756899060.0382485,-617
1756899060.0476122,-746
1756899060.052867,-898
1756899060.0531511,-1023
1756899060.0533729,-1086
1756899060.0535865,-1112
1756899060.0538428,-1165
1756899060.05416,-1263
1756899060.054372,-1331
1756899060.0560095,-1269
1756899060.0589168,-1068
1756899060.0598388,-828
1756899060.0625067,-649
1756899060.0638082,-530
1756899060.0661345,-400
1756899060.0677748,-218
1756899060.0704982,-37
1756899060.0716405,75
1756899060.073626,111
1756899060.0755782,117
1756899060.0776672,122
1756899060.0794904,111
1756899060.081425,74
1756899060.083578,28
1756899060.0854764,-1
1756899060.0895805,-12
1756899060.0898445,-15
1756899060.1283429,-13
1756899060.1286547,-6
1756899060.1312582,-6
1756899060.1322474,-28
1756899060.1324766,-56
1756899060.1326756,-42
1756899060.1328745,34
1756899060.1330724,117
1756899060.1335015,129
1756899060.1338027,71
1756899060.1340067,20
1756899060.1342032,34
1756899060.1344213,82
1756899060.136105,84
1756899060.1365814,29
1756899060.1367843,-16
1756899060.13698,14
1756899060.1372123,90
1756899060.1430004,126
1756899060.1490233,93
1756899060.1494253,55
1756899060.1496365,82
1756899060.149834,156
1756899060.1500502,194
1756899060.1502454,146
1756899060.150467,59
1756899060.1506655,14
1756899060.1508617,17
1756899060.1510575,8
1756899060.1512542,-43
1756899060.1514494,-87
1756899060.1524568,-61
1756899060.1606877,15
1756899060.1609368,56
1756899060.161144,20
1756899060.1614203,-38
1756899060.1620955,-29
1756899060.1640158,48
1756899060.1659186,107
1756899060.1688163,82
1756899060.1699448,-2
1756899060.1719596,-69
1756899060.1739197,-91
1756899060.1758573,-91
1756899060.1777766,-90
1756899060.1808205,-63
1756899060.1816828,0
1756899060.1839783,55
1756899060.1864362,43
1756899060.1876366,-33
1756899060.20177,-84
1756899060.2023478,-44
1756899060.202645,50
1756899060.2028549,94
1756899060.2030537,22
1756899060.203269,-114
1756899060.203467,-213
1756899060.203664,-224
1756899060.2053165,-185
1756899060.2075257,-153
1756899060.210884,-160
1756899060.2111487,-181
1756899060.2131307,-188
1756899060.2151973,-166
1756899060.2171097,-115
1756899060.2190964,-53
1756899060.2250621,-19
1756899060.2253106,-44
1756899060.225511,-119
1756899060.2269547,-195
1756899060.2288795,-226
1756899060.2308986,-209
1756899060.232855,-191
1756899060.2347298,-199
1756899060.2369063,-211
1756899060.2507389,-175
1756899060.251714,-92
1756899060.2541862,-24
1756899060.2544143,-21
1756899060.254615,-58
1756899060.254811,-75
1756899060.2550073,-49
1756899060.2552023,-34
1756899060.2553976,-81
1756899060.2564244,-172
1756899060.2584138,-241
1756899060.2603617,-252
1756899060.2651367,-245
1756899060.2653742,-266
1756899060.26665,-295
1756899060.270302,-273
1756899060.271228,-192
1756899060.272129,-124
1756899060.2743526,-137
1756899060.276057,-198
1756899060.2780242,-209
1756899060.2800412,-139
1756899060.2820067,-68
1756899060.2841816,-95
1756899060.2859101,-205
1756899060.289726,-282
