1756899050.2231262,0,-264.0
1756899050.2235196,0,-320.0
1756899050.225546,0,-353.0
1756899050.2275276,0,-318.0
1756899050.2294025,0,-256.0
1756899050.2314088,0,-239.0
1756899050.233393,0,-284.0
1756899050.235417,0,-338.0
1756899050.2372139,0,-344.0
1756899050.239129,0,-320.0
1756899050.2412057,0,-326.0
1756899050.2431962,0,-359.0
1756899050.24537,0,-365.0
1756899050.2471933,0,-315.0
1756899050.2492504,0,-263.0
1756899050.2511926,0,-288.0
1756899050.2531624,0,-383.0
1756899050.255127,0,-457.0
1756899050.2568839,0,-437.0
1756899050.259026,0,-359.0
1756899050.2609277,0,-324.0
1756899050.262842,0,-371.0
1756899050.2649276,0,-437.0
1756899050.266678,0,-440.0
1756899050.2688673,0,-374.0
1756899050.27084,0,-309.0
1756899050.272725,0,-300.0
1756899050.2747684,0,-327.0
1756899050.2767487,0,-351.0
1756899050.2788033,0,-348.0
1756899050.2810957,0,-334.0
1756899050.2827532,0,-332.0
1756899050.2847114,0,-347.0
1756899050.2867067,0,-369.0
1756899050.2886844,0,-379.0
1756899050.2905102,0,-360.0
1756899050.2924228,0,-302.0
1756899050.294387,0,-233.0
1756899050.2963583,0,-194.0
1756899050.298524,0,-206.0
1756899050.3006783,0,-235.0
1756899050.3029878,0,-230.0
1756899050.3040419,0,-184.0
1756899050.306043,0,-149.0
1756899050.3080013,0,-174.0
1756899050.3099847,0,-242.0
1756899050.3121269,0,-289.0
1756899050.3139544,0,-271.0
1756899050.315916,0,-233.0
1756899050.3179429,0,-247.0
1756899050.3198678,0,-324.0
1756899050.3225873,0,-409.0
1756899050.323832,0,-435.0
1756899050.3257139,0,-400.0
1756899050.3276942,0,-352.0
1756899050.3297012,0,-328.0
1756899050.3315823,0,-322.0
1756899050.3336654,0,-299.0
1756899050.3356385,0,-244.0
1756899050.337509,0,-170.0
1756899050.3394043,0,-99.0
1756899050.3413785,0,-50.0
1756899050.3433716,0,-34.0
1756899050.3452666,0,-51.0
1756899050.3472846,0,-76.0
1756899050.349192,0,-87.0
1756899050.351198,0,-90.0
1756899050.3531709,0,-125.0
1756899050.3550928,0,-206.0
1756899050.3571,0,-291.0
1756899050.359067,0,-321.0
1756899050.3609862,0,-290.0
1756899050.3630905,0,-264.0
1756899050.3649628,0,-296.0
1756899050.366898,0,-361.0
1756899050.3688867,0,-396.0
1756899050.3708196,0,-376.0
1756899050.372758,0,-344.0
1756899050.374788,0,-342.0
1756899050.3767602,0,-359.0
1756899050.3786852,0,-380.0
1756899050.3806877,0,-417.0
1756899050.382658,0,-494.0
1756899050.3845918,0,-579.0
1756899050.3865945,0,-625.0
1756899050.3885674,0,-641.0
1756899050.3904457,0,-703.0
1756899050.3924358,0,-862.0
1756899050.3944786,0,-1053.0
1756899050.3963218,0,-1166.0
1756899050.3983755,0,-1184.0
1756899050.4003544,0,-1190.0
1756899050.4022775,0,-1248.0
1756899050.4043062,0,-1309.0
1756899050.406216,0,-1274.0
1756899050.4081717,0,-1135.0
1756899050.4101753,0,-982.0
1756899050.4121451,0,-880.0
1756899050.4140382,0,-782.0
1756899050.416072,0,-615.0
1756899050.4183295,0,-389.0
1756899050.4199781,0,-207.0
1756899050.4219742,0,-141.0
1756899050.4239562,0,-154.0
1756899050.4258406,0,-156.0
1756899050.4285448,0,-118.0
1756899050.4303792,0,-85.0
1756899050.432197,0,-98.0
1756899050.434136,0,-131.0
1756899050.4360235,0,-129.0
1756899050.438054,0,-90.0
1756899050.439906,0,-73.0
1756899050.4415529,0,-107.0
1756899050.443504,0,-160.0
1756899050.4455633,0,-168.0
1756899050.447568,0,-116.0
1756899050.4494696,0,-54.0
1756899050.4514234,0,-42.0
1756899050.453378,0,-99.0
1756899050.4552784,0,-179.0
1756899050.457335,0,-204.0
1756899050.4592805,0,-133.0
1756899050.461238,0,-10.0
1756899050.4632049,0,67.0
1756899050.4651785,0,36.0
1756899050.4671555,0,-59.0
1756899050.469107,0,-94.0
1756899050.471076,0,-3.0
1756899050.473105,0,140.0
1756899050.4749572,0,199.0
1756899050.4769747,0,114.0
1756899050.47893,0,-22.0
1756899050.4809265,0,-83.0
1756899050.482928,0,-46.0
1756899050.4848735,0,2.0
1756899050.4868329,0,-19.0
1756899050.4899848,0,-87.0
1756899050.4907823,0,-126.0
1756899050.492694,0,-116.0
1756899050.4946096,0,-101.0
1756899050.4965582,0,-106.0
1756899050.498652,0,-107.0
1756899050.5005887,0,-70.0
1756899050.5025406,0,-12.0
1756899050.504543,0,2.0
1756899050.506515,0,-37.0
1756899050.50844,0,-73.0
1756899050.5104647,0,-49.0
1756899050.512361,0,10.0
1756899050.5143623,0,28.0
1756899050.5162842,0,-32.0
1756899050.5183108,0,-111.0
1756899050.5202463,0,-128.0
1756899050.5221872,0,-67.0
1756899050.5250592,0,6.0
1756899050.5261276,0,21.0
1756899050.5281353,0,-32.0
1756899050.530117,0,-96.0
1756899050.5321345,0,-118.0
1756899050.53397,0,-108.0
1756899050.5360038,0,-109.0
1756899050.537997,0,-140.0
1756899050.5398629,0,-176.0
1756899050.541854,0,-173.0
1756899050.5438905,0,-123.0
1756899050.545825,0,-57.0
1756899050.5478117,0,-17.0
1756899050.5497453,0,-23.0
1756899050.551678,0,-61.0
1756899050.5537076,0,-96.0
1756899050.55562,0,-102.0
1756899050.5576231,0,-94.0
1756899050.5595942,0,-95.0
1756899050.5614827,0,-116.0
1756899050.5635197,0,-140.0
1756899050.565496,0,-136.0
1756899050.5673907,0,-100.0
1756899050.5694196,0,-56.0
1756899050.5714018,0,-32.0
1756899050.5733154,0,-27.0
1756899050.5753164,0,-19.0
1756899050.577375,0,-2.0
1756899050.5792494,0,4.0
1756899050.581198,0,-31.0
1756899050.5831435,0,-98.0
1756899050.5851457,0,-162.0
1756899050.5871158,0,-196.0
1756899050.5890973,0,-194.0
1756899050.5910199,0,-172.0
1756899050.5929582,0,-147.0
1756899050.594981,0,-127.0
1756899050.596917,0,-116.0
1756899050.5988586,0,-113.0
1756899050.6008818,0,-110.0
1756899050.6028183,0,-95.0
1756899050.6048095,0,-70.0
1756899050.60679,0,-55.0
1756899050.6087167,0,-78.0
1756899050.610669,0,-130.0
1756899050.6126883,0,-171.0
1756899050.6147275,0,-169.0
1756899050.6166143,0,-128.0
1756899050.6185899,0,-83.0
1756899050.6204722,0,-70.0
1756899050.6212869,0.495361328125,-70.0
1756899050.6225162,0.495361328125,-96.0
1756899050.6244245,0.495361328125,-145.0
1756899050.626451,0.495361328125,-185.0
1756899050.6283815,0.495361328125,-198.0
1756899050.6303306,0.495361328125,-182.0
1756899050.6323252,0.495361328125,-164.0
1756899050.6342607,0.495361328125,-164.0
1756899050.63627,0.495361328125,-177.0
1756899050.6382074,0.495361328125,-185.0
1756899050.6401515,0.495361328125,-182.0
1756899050.6421714,0.495361328125,-181.0
1756899050.6440516,0.495361328125,-185.0
1756899050.646094,0.495361328125,-175.0
1756899050.6480782,0.495361328125,-143.0
1756899050.649981,0.495361328125,-115.0
1756899050.6519945,0.495361328125,-140.0
1756899050.653985,0.495361328125,-216.0
1756899050.6558878,0.495361328125,-268.0
1756899050.6573057,0.6162109375,-268.0
1756899050.657797,0.6162109375,-238.0
1756899050.6598265,0.6162109375,-163.0
1756899050.6618326,0.6162109375,-152.0
1756899050.6637578,0.6162109375,-241.0
1756899050.6658387,0.6162109375,-343.0
1756899050.6676743,0.6162109375,-339.0
1756899050.6696393,0.6162109375,-233.0
1756899050.6716597,0.6162109375,-166.0
1756899050.6735935,0.6162109375,-248.0
1756899050.675542,0.6162109375,-432.0
1756899050.6775055,0.6162109375,-560.0
1756899050.6794374,0.6162109375,-537.0
1756899050.6814861,0.6162109375,-435.0
1756899050.6834252,0.6162109375,-392.0
1756899050.685362,0.6162109375,-454.0
1756899050.6873503,0.6162109375,-537.0
1756899050.6893036,0.6162109375,-529.0
1756899050.6894202,0.64111328125,-529.0
1756899050.6913078,0.64111328125,-429.0
1756899050.6932294,0.64111328125,-333.0
1756899050.695207,0.64111328125,-333.0
1756899050.6971927,0.64111328125,-416.0
1756899050.6991365,0.64111328125,-493.0
1756899050.7011526,0.64111328125,-498.0
1756899050.7030401,0.64111328125,-458.0
1756899050.7050924,0.64111328125,-454.0
1756899050.7070105,0.64111328125,-519.0
1756899050.7090163,0.64111328125,-604.0
1756899050.711025,0.64111328125,-636.0
1756899050.7129605,0.64111328125,-601.0
1756899050.7149997,0.64111328125,-554.0
1756899050.7168322,0.64111328125,-550.0
1756899050.7190356,0.64111328125,-582.0
1756899050.720869,0.64111328125,-596.0
1756899050.7230158,0.64111328125,-564.0
1756899050.7247481,0.64111328125,-519.0
1756899050.727362,0.64111328125,-503.0
1756899050.728631,0.64111328125,-518.0
1756899050.7306104,0.64111328125,-534.0
1756899050.7327366,0.64111328125,-529.0
1756899050.7345486,0.64111328125,-513.0
1756899050.7364926,0.64111328125,-507.0
1756899050.7384508,0.64111328125,-509.0
1756899050.7404437,0.64111328125,-505.0
1756899050.7423944,0.64111328125,-488.0
1756899050.7444062,0.64111328125,-469.0
1756899050.7463133,0.64111328125,-460.0
1756899050.7482994,0.64111328125,-470.0
1756899050.750242,0.64111328125,-498.0
1756899050.752266,0.64111328125,-543.0
1756899050.754236,0.64111328125,-582.0
1756899050.7561226,0.64111328125,-590.0
1756899050.7580843,0.64111328125,-562.0
1756899050.7600958,0.64111328125,-524.0
1756899050.7620876,0.64111328125,-506.0
1756899050.7640607,0.64111328125,-515.0
1756899050.7660127,0.64111328125,-529.0
1756899050.76812,0.64111328125,-522.0
1756899050.7699172,0.64111328125,-491.0
1756899050.77193,0.64111328125,-453.0
1756899050.7738829,0.64111328125,-427.0
1756899050.7758207,0.64111328125,-432.0
1756899050.7777827,0.64111328125,-467.0
1756899050.7797422,0.64111328125,-500.0
1756899050.7817135,0.64111328125,-496.0
1756899050.7836854,0.64111328125,-450.0
1756899050.785693,0.64111328125,-412.0
1756899050.7861857,0.49853515625,-412.0
1756899050.787653,0.49853515625,-423.0
1756899050.7895875,0.49853515625,-467.0
1756899050.7916703,0.49853515625,-481.0
1756899050.7935064,0.49853515625,-438.0
1756899050.795658,0.49853515625,-390.0
1756899050.7974331,0.49853515625,-393.0
1756899050.7994564,0.49853515625,-446.0
1756899050.801373,0.49853515625,-493.0
1756899050.8033402,0.49853515625,-498.0
1756899050.8053482,0.49853515625,-489.0
1756899050.8072827,0.49853515625,-500.0
1756899050.809335,0.49853515625,-520.0
1756899050.811203,0.49853515625,-510.0
1756899050.8132324,0.49853515625,-479.0
1756899050.8151398,0.49853515625,-472.0
1756899050.8171723,0.49853515625,-496.0
1756899050.8190703,0.49853515625,-510.0
1756899050.821052,0.49853515625,-476.0
1756899050.8229992,0.49853515625,-432.0
1756899050.824965,0.49853515625,-442.0
1756899050.826968,0.49853515625,-512.0
1756899050.8289008,0.49853515625,-576.0
1756899050.8299508,0.3271484375,-576.0
1756899050.8310213,0.3271484375,-579.0
1756899050.8328218,0.3271484375,-541.0
1756899050.8350317,0.3271484375,-526.0
1756899050.8367882,0.3271484375,-556.0
1756899050.838965,0.3271484375,-592.0
1756899050.84066,0.3271484375,-595.0
1756899050.8427162,0.3271484375,-574.0
1756899050.8440382,0.18310546875,-574.0
1756899050.8483179,0.18310546875,-556.0
1756899050.8520794,0.1370849609375,-556.0
1756899050.8538435,0.1370849609375,-554.0
1756899050.8540447,0.1370849609375,-541.0
1756899050.8542411,0.1370849609375,-497.0
1756899050.8544364,0.1370849609375,-450.0
1756899050.85835,0.1370849609375,-432.0
1756899050.8585517,0.1370849609375,-443.0
1756899050.8587468,0.1370849609375,-455.0
1756899050.8603313,0.1370849609375,-454.0
1756899050.86231,0.1370849609375,-449.0
1756899050.8643296,0.1370849609375,-474.0
1756899050.8663144,0.1370849609375,-524.0
1756899050.8681793,0.1370849609375,-556.0
1756899050.8701866,0.1370849609375,-536.0
1756899050.8721602,0.1370849609375,-489.0
1756899050.874111,0.1370849609375,-477.0
1756899050.8761382,0.1370849609375,-526.0
1756899050.8780456,0.1370849609375,-577.0
1756899050.8793256,0.119140625,-577.0
1756899050.8800116,0.119140625,-560.0
1756899050.882098,0.119140625,-490.0
1756899050.8839562,0.119140625,-463.0
1756899050.885949,0.119140625,-545.0
1756899050.8878822,0.119140625,-668.0
1756899050.8898408,0.119140625,-703.0
1756899050.8917437,0.1046142578125,-703.0
1756899050.8918068,0.1046142578125,-615.0
1756899050.893861,0.1046142578125,-519.0
1756899050.895789,0.1046142578125,-541.0
1756899050.8976707,0.1046142578125,-656.0
1756899050.899671,0.1046142578125,-719.0
1756899050.9017067,0.1046142578125,-635.0
1756899050.9036806,0.1046142578125,-481.0
1756899050.905617,0.1046142578125,-409.0
1756899050.9077008,0.1046142578125,-470.0
1756899050.9095392,0.1046142578125,-576.0
1756899050.9116423,0.1046142578125,-605.0
1756899050.9134457,0.1046142578125,-533.0
1756899050.915397,0.1046142578125,-430.0
1756899050.9174109,0.1046142578125,-375.0
1756899050.9194283,0.1046142578125,-398.0
1756899050.9212599,0.1046142578125,-469.0
1756899050.9231315,0.07232666015625,-469.0
1756899050.9232621,0.07232666015625,-549.0
1756899050.9252834,0.07232666015625,-596.0
1756899050.9271793,0.07232666015625,-588.0
1756899050.9292057,0.07232666015625,-549.0
1756899050.9311402,0.07232666015625,-532.0
1756899050.933277,0.07232666015625,-567.0
1756899050.9350705,0.07232666015625,-636.0
1756899050.9371073,0.07232666015625,-687.0
1756899050.9390879,0.07232666015625,-686.0
1756899050.9409626,0.07232666015625,-642.0
1756899050.943045,0.07232666015625,-586.0
1756899050.944935,0.07232666015625,-541.0
1756899050.9471784,0.07232666015625,-517.0
1756899050.9488726,0.07232666015625,-520.0
1756899050.9569056,0.07232666015625,-545.0
1756899050.957136,0.07232666015625,-570.0
1756899050.9573345,0.07232666015625,-579.0
1756899050.9575317,0.07232666015625,-574.0
1756899050.9586515,0.07232666015625,-573.0
1756899050.9606256,0.07232666015625,-592.0
1756899050.9625812,0.07232666015625,-620.0
1756899050.9629853,0.0208587646484375,-620.0
1756899050.9645672,0.0208587646484375,-630.0
1756899050.9665499,0.0208587646484375,-614.0
1756899050.9703324,0.0208587646484375,-588.0
1756899050.9705775,0.0208587646484375,-580.0
1756899050.9724305,0.0208587646484375,-591.0
1756899050.9745882,0.0208587646484375,-604.0
1756899050.9764142,0.0208587646484375,-594.0
1756899050.9783313,0.0208587646484375,-567.0
1756899050.9802914,0.0208587646484375,-556.0
1756899050.9822583,0.0208587646484375,-584.0
1756899050.9843495,0.0208587646484375,-636.0
1756899050.9862294,0.0208587646484375,-665.0
1756899050.9868796,-0.014923095703125,-665.0
1756899050.9923906,-0.014923095703125,-647.0
1756899050.9926276,-0.014923095703125,-607.0
1756899050.9928293,-0.014923095703125,-587.0
1756899050.9941306,-0.014923095703125,-599.0
1756899050.9960272,-0.014923095703125,-617.0
1756899050.9979777,-0.014923095703125,-627.0
1756899050.9999938,-0.014923095703125,-640.0
1756899051.0019276,-0.014923095703125,-658.0
1756899051.0039003,-0.014923095703125,-651.0
1756899051.0058482,-0.014923095703125,-588.0
1756899051.0078123,-0.014923095703125,-502.0
1756899051.0097704,-0.014923095703125,-462.0
1756899051.011757,-0.014923095703125,-491.0
1756899051.0137172,-0.014923095703125,-532.0
1756899051.0156727,-0.014923095703125,-500.0
1756899051.0176406,-0.014923095703125,-390.0
1756899051.022684,-0.08319091796875,-390.0
1756899051.024859,-0.08319091796875,-289.0
1756899051.0250967,-0.08319091796875,-272.0
1756899051.025328,-0.08319091796875,-318.0
1756899051.0271597,-0.08319091796875,-354.0
1756899051.029007,-0.08319091796875,-349.0
1756899051.029384,-0.08319091796875,-344.0
1756899051.0575035,-0.1258544921875,-344.0
1756899051.0923843,-0.1258544921875,-390.0
1756899051.0926325,-0.1258544921875,-472.0
1756899051.0928621,-0.1258544921875,-527.0
1756899051.0930645,-0.1258544921875,-522.0
1756899051.0968375,-0.08355712890625,-522.0
1756899051.1081638,-0.08355712890625,-493.0
1756899051.1084538,-0.08355712890625,-493.0
1756899051.1106231,-0.08355712890625,-525.0
1756899051.1161036,-0.08355712890625,-542.0
1756899051.1163545,-0.08355712890625,-506.0
1756899051.116564,-0.08355712890625,-446.0
1756899051.116767,-0.08355712890625,-408.0
1756899051.1169662,-0.08355712890625,-408.0
1756899051.1171927,-0.08355712890625,-414.0
1756899051.1173964,-0.08355712890625,-397.0
1756899051.1175935,-0.08355712890625,-370.0
1756899051.1178482,-0.08355712890625,-359.0
1756899051.1180477,-0.08355712890625,-363.0
1756899051.118244,-0.08355712890625,-350.0
1756899051.1184404,-0.08355712890625,-309.0
1756899051.1186357,-0.08355712890625,-269.0
1756899051.1188323,-0.08355712890625,-273.0
1756899051.1190293,-0.08355712890625,-323.0
1756899051.1192253,-0.08355712890625,-382.0
1756899051.1194212,-0.08355712890625,-415.0
1756899051.1196187,-0.08355712890625,-423.0
1756899051.1199076,-0.08355712890625,-437.0
1756899051.1220436,-0.08355712890625,-472.0
1756899051.122253,-0.08355712890625,-524.0
1756899051.1224923,-0.08355712890625,-572.0
1756899051.1226907,-0.08355712890625,-600.0
1756899051.1230469,-0.08355712890625,-608.0
1756899051.126125,-0.08355712890625,-607.0
1756899051.1261847,-0.08355712890625,-625.0
1756899051.1262288,-0.08355712890625,-692.0
1756899051.126271,-0.08355712890625,-806.0
1756899051.1263137,-0.08355712890625,-928.0
1756899051.1263556,-0.08355712890625,-1025.0
1756899051.1268322,-0.08355712890625,-1113.0
1756899051.127199,-0.08355712890625,-1232.0
1756899051.127244,-0.08355712890625,-1384.0
1756899051.1272864,-0.08355712890625,-1507.0
1756899051.1273284,-0.08355712890625,-1523.0
1756899051.1273696,-0.08355712890625,-1437.0
1756899051.1276007,-0.08355712890625,-1319.0
1756899051.1276448,-0.08355712890625,-1227.0
1756899051.127754,-0.08355712890625,-1139.0
1756899051.1279607,-0.08355712890625,-994.0
1756899051.1280046,-0.08355712890625,-780.0
1756899051.1282358,-0.08355712890625,-559.0
1756899051.1282785,-0.08355712890625,-405.0
1756899051.1295295,-0.08355712890625,-326.0
1756899051.1315095,-0.08355712890625,-274.0
1756899051.1334708,-0.08355712890625,-210.0
1756899051.1423125,-0.047637939453125,-210.0
1756899051.1545672,-0.047637939453125,-146.0
1756899051.163317,-0.047637939453125,-128.0
1756899051.1643443,-0.047637939453125,-165.0
1756899051.165019,-0.047637939453125,-224.0
1756899051.1660078,-0.047637939453125,-254.0
1756899051.1662946,-0.047637939453125,-243.0
1756899051.1664176,-0.047637939453125,-233.0
1756899051.1665363,-0.047637939453125,-264.0
1756899051.1666577,-0.047637939453125,-328.0
1756899051.167031,-0.047637939453125,-361.0
1756899051.167249,-0.047637939453125,-305.0
1756899051.1673734,-0.047637939453125,-185.0
1756899051.167582,-0.047637939453125,-99.0
1756899051.1677008,-0.047637939453125,-129.0
1756899051.1678195,-0.047637939453125,-229.0
1756899051.1712053,-0.047637939453125,-270.0
1756899051.1718824,-0.047637939453125,-178.0
1756899051.1722577,-0.047637939453125,-42.0
1756899051.1725187,-0.047637939453125,-18.0
1756899051.1729941,-0.047637939453125,-149.0
1756899051.1749055,-0.047637939453125,-307.0
1756899051.1763065,0.038360595703125,-307.0
1756899051.176762,0.038360595703125,-344.0
1756899051.178717,0.038360595703125,-254.0
1756899051.180941,0.038360595703125,-169.0
1756899051.1830735,0.038360595703125,-175.0
1756899051.1848676,0.038360595703125,-237.0
1756899051.1866598,0.038360595703125,-256.0
1756899051.1890662,0.038360595703125,-209.0
1756899051.191907,0.038360595703125,-154.0
1756899051.200754,0.038360595703125,-158.0
1756899051.200871,0.038360595703125,-212.0
1756899051.2009478,0.038360595703125,-261.0
1756899051.201025,0.038360595703125,-268.0
1756899051.2011,0.038360595703125,-242.0
1756899051.2023482,0.038360595703125,-221.0
1756899051.2064567,0.038360595703125,-232.0
1756899051.2069094,0.038360595703125,-269.0
1756899051.2102711,0.038360595703125,-291.0
1756899051.210663,0.038360595703125,-240.0
1756899051.2124786,0.038360595703125,-111.0
1756899051.2193797,0.038360595703125,20.0
1756899051.2200172,0.038360595703125,41.0
1756899051.2207615,0.038360595703125,-93.0
1756899051.222584,0.038360595703125,-289.0
1756899051.223752,0.038360595703125,-391.0
1756899051.2326295,0.038360595703125,-344.0
1756899051.2333913,0.038360595703125,-244.0
1756899051.2336223,0.038360595703125,-239.0
1756899051.23386,0.038360595703125,-362.0
1756899051.2349682,0.038360595703125,-501.0
1756899051.2359717,0.038360595703125,-516.0
1756899051.23625,0.038360595703125,-394.0
1756899051.2369244,0.1558837890625,-394.0
1756899051.2416089,0.1558837890625,-254.0
1756899051.2419357,0.1558837890625,-209.0
1756899051.24214,0.1558837890625,-255.0
1756899051.2485797,0.1558837890625,-308.0
1756899051.2489,0.1558837890625,-309.0
1756899051.2492025,0.1558837890625,-290.0
1756899051.2499137,0.1558837890625,-302.0
1756899051.2568958,0.1439208984375,-302.0
1756899051.2577984,0.1439208984375,-343.0
1756899051.2581556,0.1439208984375,-359.0
1756899051.2583609,0.1439208984375,-335.0
1756899051.2591052,0.1439208984375,-306.0
1756899051.2594743,0.1439208984375,-313.0
1756899051.261361,0.1439208984375,-332.0
1756899051.263343,0.1439208984375,-313.0
1756899051.265515,0.1439208984375,-254.0
1756899051.2673512,0.1439208984375,-226.0
1756899051.2695727,0.1439208984375,-281.0
1756899051.2713819,0.1439208984375,-375.0
1756899051.273058,0.1439208984375,-415.0
1756899051.2750473,0.1439208984375,-378.0
1756899051.2771363,0.1439208984375,-347.0
1756899051.2790394,0.1439208984375,-395.0
1756899051.2831848,0.1439208984375,-483.0
1756899051.2834623,0.1439208984375,-499.0
1756899051.2864547,0.1439208984375,-397.0
1756899051.2869496,0.1439208984375,-255.0
1756899051.289037,0.1439208984375,-187.0
1756899051.2912166,0.1439208984375,-215.0
1756899051.2986078,0.11566162109375,-215.0
1756899051.2989566,0.11566162109375,-267.0
1756899051.299272,0.11566162109375,-273.0
1756899051.29973,0.11566162109375,-241.0
1756899051.3005183,0.11566162109375,-226.0
1756899051.3007243,0.11566162109375,-259.0
1756899051.3026717,0.11566162109375,-311.0
1756899051.3047042,0.11566162109375,-353.0
1756899051.3120944,0.11566162109375,-397.0
1756899051.312315,0.11566162109375,-455.0
1756899051.3125124,0.11566162109375,-499.0
1756899051.3127074,0.11566162109375,-471.0
1756899051.3144853,0.11566162109375,-364.0
1756899051.3164325,0.11566162109375,-263.0
1756899051.3185449,0.11566162109375,-263.0
1756899051.320424,0.11566162109375,-362.0
1756899051.3223794,0.11566162109375,-449.0
1756899051.324388,0.11566162109375,-422.0
1756899051.3262806,0.11566162109375,-312.0
1756899051.3289263,0.11566162109375,-255.0
1756899051.3305366,0.11566162109375,-336.0
1756899051.3352242,0.0001722574234008789,-336.0
1756899051.3356326,0.0001722574234008789,-491.0
1756899051.3358552,0.0001722574234008789,-566.0
1756899051.3360934,0.0001722574234008789,-487.0
1756899051.3382647,0.0001722574234008789,-334.0
1756899051.3401093,0.0001722574234008789,-242.0
1756899051.3420382,0.0001722574234008789,-257.0
1756899051.3440108,0.0001722574234008789,-309.0
1756899051.3460393,0.0001722574234008789,-314.0
1756899051.3483033,0.0001722574234008789,-269.0
1756899051.3498979,0.0001722574234008789,-236.0
1756899051.3552952,0.0001722574234008789,-269.0
1756899051.355534,0.0001722574234008789,-353.0
1756899051.355768,0.0001722574234008789,-419.0
1756899051.3578608,0.0001722574234008789,-425.0
1756899051.366767,0.0001722574234008789,-391.0
1756899051.3669915,0.0001722574234008789,-376.0
1756899051.3672283,0.0001722574234008789,-401.0
1756899051.3674333,0.0001722574234008789,-434.0
1756899051.367674,0.0001722574234008789,-434.0
1756899051.3722413,0.0001722574234008789,-406.0
1756899051.372451,0.0001722574234008789,-400.0
1756899051.3812795,-0.15673828125,-400.0
1756899051.390082,-0.15673828125,-434.0
1756899051.3907485,-0.15673828125,-483.0
1756899051.3909607,-0.15673828125,-502.0
1756899051.3911715,-0.15673828125,-496.0
1756899051.3913689,-0.15673828125,-518.0
1756899051.3917074,-0.15673828125,-573.0
1756899051.3919747,-0.15673828125,-600.0
1756899051.392212,-0.15673828125,-551.0
1756899051.3926737,-0.15673828125,-475.0
1756899051.3936148,-0.15673828125,-468.0
1756899051.393966,-0.15673828125,-554.0
1756899051.3965755,-0.15673828125,-643.0
1756899051.397087,-0.15673828125,-641.0
1756899051.4003904,-0.15673828125,-572.0
1756899051.401045,-0.15673828125,-539.0
1756899051.4030404,-0.15673828125,-599.0
1756899051.4049904,-0.15673828125,-689.0
1756899051.4171178,-0.15673828125,-710.0
1756899051.4182222,-0.15673828125,-647.0
1756899051.418428,-0.15673828125,-574.0
1756899051.4186265,-0.15673828125,-561.0
1756899051.418823,-0.15673828125,-600.0
1756899051.4189696,-0.26708984375,-600.0
1756899051.41902,-0.26708984375,-636.0
1756899051.419215,-0.26708984375,-640.0
1756899051.4206645,-0.26708984375,-630.0
1756899051.422665,-0.26708984375,-634.0
1756899051.4255884,-0.26708984375,-638.0
1756899051.4268394,-0.26708984375,-617.0
1756899051.4314156,-0.26708984375,-579.0
1756899051.4320257,-0.26708984375,-547.0
1756899051.432478,-0.26708984375,-545.0
1756899051.4344432,-0.26708984375,-560.0
1756899051.4363816,-0.26708984375,-560.0
1756899051.438358,-0.26708984375,-532.0
1756899051.4405818,-0.26708984375,-502.0
1756899051.4430206,-0.26708984375,-505.0
1756899051.4450927,-0.26708984375,-552.0
1756899051.447012,-0.26708984375,-606.0
1756899051.448184,-0.26708984375,-622.0
1756899051.450195,-0.26708984375,-592.0
1756899051.4521644,-0.26708984375,-556.0
1756899051.454304,-0.26708984375,-548.0
1756899051.4564395,-0.26708984375,-564.0
1756899051.4581015,-0.26708984375,-565.0
1756899051.460086,-0.26708984375,-531.0
1756899051.4620252,-0.26708984375,-490.0
1756899051.4636147,-0.373046875,-490.0
1756899051.464316,-0.373046875,-479.0
1756899051.4676104,-0.373046875,-496.0
1756899051.4714959,-0.373046875,-499.0
1756899051.4717095,-0.373046875,-466.0
1756899051.4719937,-0.373046875,-432.0
1756899051.474372,-0.373046875,-455.0
1756899051.4756584,-0.373046875,-529.0
1756899051.47794,-0.373046875,-575.0
1756899051.4847395,-0.373046875,-543.0
1756899051.4856808,-0.373046875,-473.0
1756899051.4894238,-0.373046875,-462.0
1756899051.4897227,-0.373046875,-536.0
1756899051.4899213,-0.373046875,-615.0
1756899051.4901218,-0.373046875,-610.0
1756899051.4915383,-0.373046875,-524.0
1756899051.493806,-0.373046875,-455.0
1756899051.495377,-0.373046875,-464.0
1756899051.4974353,-0.373046875,-517.0
1756899051.499384,-0.373046875,-531.0
1756899051.5013618,-0.373046875,-476.0
1756899051.5024464,-0.470947265625,-476.0
1756899051.5032892,-0.470947265625,-406.0
1756899051.5052545,-0.470947265625,-387.0
1756899051.5100946,-0.470947265625,-432.0
1756899051.5109117,-0.470947265625,-496.0
1756899051.511305,-0.470947265625,-523.0
1756899051.5191023,-0.470947265625,-493.0
1756899051.5195456,-0.470947265625,-431.0
1756899051.5197453,-0.470947265625,-377.0
1756899051.51995,-0.470947265625,-359.0
1756899051.5209277,-0.470947265625,-373.0
1756899051.5229387,-0.470947265625,-388.0
1756899051.5249567,-0.470947265625,-374.0
1756899051.5271137,-0.470947265625,-335.0
1756899051.5288448,-0.470947265625,-317.0
1756899051.5349977,-0.470947265625,-361.0
1756899051.5354054,-0.470947265625,-455.0
1756899051.535617,-0.470947265625,-538.0
1756899051.5366313,-0.470947265625,-560.0
1756899051.538129,-0.51904296875,-560.0
1756899051.539023,-0.51904296875,-527.0
1756899051.5406342,-0.51904296875,-497.0
1756899051.5445507,-0.51904296875,-511.0
1756899051.5451775,-0.51904296875,-546.0
1756899051.572343,-0.51904296875,-545.0
1756899051.5725849,-0.51904296875,-494.0
1756899051.5727854,-0.51904296875,-438.0
1756899051.5729809,-0.51904296875,-415.0
1756899051.574195,-0.51904296875,-404.0
1756899051.5743978,-0.51904296875,-361.0
1756899051.5745945,-0.51904296875,-293.0
1756899051.574791,-0.51904296875,-274.0
1756899051.5749862,-0.51904296875,-347.0
1756899051.575181,-0.51904296875,-460.0
1756899051.5753765,-0.51904296875,-504.0
1756899051.5755723,-0.51904296875,-442.0
1756899051.5757666,-0.51904296875,-358.0
1756899051.5759623,-0.51904296875,-363.0
1756899051.576157,-0.51904296875,-460.0
1756899051.5763514,-0.51904296875,-545.0
1756899051.5780282,-0.51904296875,-538.0
1756899051.5800557,-0.51904296875,-466.0
1756899051.584801,-0.51904296875,-413.0
1756899051.5850618,-0.51904296875,-415.0
1756899051.5858195,-0.51904296875,-438.0
1756899051.5878527,-0.51904296875,-437.0
1756899051.5898287,-0.51904296875,-413.0
1756899051.5920587,-0.51904296875,-398.0
1756899051.5939965,-0.51904296875,-405.0
1756899051.5944784,-0.55322265625,-405.0
1756899051.5957656,-0.55322265625,-418.0
1756899051.5977924,-0.55322265625,-424.0
1756899051.5996945,-0.55322265625,-424.0
1756899051.6021664,-0.55322265625,-429.0
1756899051.6035028,-0.55322265625,-452.0
1756899051.6055176,-0.55322265625,-492.0
1756899051.6075506,-0.55322265625,-529.0
1756899051.609682,-0.55322265625,-531.0
1756899051.6125317,-0.55322265625,-485.0
1756899051.6133888,-0.55322265625,-418.0
1756899051.6159663,-0.55322265625,-381.0
1756899051.617581,-0.55322265625,-393.0
1756899051.619225,-0.55322265625,-414.0
1756899051.6195576,-0.60546875,-414.0
1756899051.621407,-0.60546875,-388.0
1756899051.6232126,-0.60546875,-317.0
1756899051.6318464,-0.60546875,-263.0
1756899051.6321814,-0.60546875,-271.0
1756899051.632778,-0.60546875,-322.0
1756899051.646901,-0.60546875,-366.0
1756899051.6471992,-0.60546875,-400.0
1756899051.6474056,-0.60546875,-459.0
1756899051.6476035,-0.60546875,-552.0
1756899051.65037,-0.60546875,-629.0
1756899051.656009,-0.60546875,-647.0
1756899051.656381,-0.60546875,-616.0
1756899051.6567385,-0.60546875,-586.0
1756899051.6570265,-0.60546875,-574.0
1756899051.6573966,-0.60546875,-540.0
1756899051.6575058,-0.50146484375,-540.0
1756899051.6577384,-0.50146484375,-455.0
1756899051.6589944,-0.50146484375,-367.0
1756899051.6645555,-0.50146484375,-355.0
1756899051.664787,-0.50146484375,-427.0
1756899051.6649837,-0.50146484375,-500.0
1756899051.6651788,-0.50146484375,-500.0
1756899051.6653745,-0.50146484375,-455.0
1756899051.6655712,-0.50146484375,-453.0
1756899051.6665049,-0.50146484375,-543.0
1756899051.6684933,-0.50146484375,-663.0
1756899051.6704402,-0.50146484375,-709.0
1756899051.674034,-0.50146484375,-643.0
1756899051.6743023,-0.50146484375,-527.0
1756899051.676454,-0.50146484375,-437.0
1756899051.6784933,-0.50146484375,-393.0
1756899051.6854274,-0.50146484375,-364.0
1756899051.6860588,-0.50146484375,-323.0
1756899051.6864774,-0.50146484375,-280.0
1756899051.6867592,-0.50146484375,-257.0
1756899051.6881328,-0.50146484375,-258.0
1756899051.6901095,-0.50146484375,-278.0
1756899051.692083,-0.50146484375,-316.0
1756899051.6987014,-0.097412109375,-316.0
1756899051.6992633,-0.097412109375,-370.0
1756899051.7000504,-0.097412109375,-417.0
1756899051.7004292,-0.097412109375,-430.0
1756899051.7007427,-0.097412109375,-413.0
1756899051.7019277,-0.097412109375,-404.0
1756899051.7038612,-0.097412109375,-425.0
1756899051.705788,-0.097412109375,-451.0
1756899051.7077637,-0.097412109375,-444.0
1756899051.7097251,-0.097412109375,-399.0
1756899051.7227404,-0.097412109375,-353.0
1756899051.7303824,-0.097412109375,-334.0
1756899051.7307136,-0.097412109375,-336.0
1756899051.7312846,-0.097412109375,-338.0
1756899051.731592,-0.097412109375,-335.0
1756899051.7319038,-0.097412109375,-327.0
1756899051.7322106,-0.097412109375,-314.0
1756899051.7325268,-0.097412109375,-297.0
1756899051.732846,-0.097412109375,-294.0
1756899051.7377458,-0.097412109375,-322.0
1756899051.7380373,-0.097412109375,-362.0
1756899051.7383108,-0.097412109375,-368.0
1756899051.7385116,-0.097412109375,-321.0
1756899051.7390819,-0.097412109375,-275.0
1756899051.7394419,-0.097412109375,-280.0
1756899051.7396739,0.5458984375,-280.0
1756899051.7413042,0.5458984375,-315.0
1756899051.7472515,0.5458984375,-311.0
1756899051.7478693,0.5458984375,-241.0
1756899051.7484999,0.5458984375,-169.0
1756899051.7589989,0.5458984375,-176.0
1756899051.7596462,0.5458984375,-252.0
1756899051.7598584,0.5458984375,-308.0
1756899051.7600572,0.5458984375,-284.0
1756899051.7602541,0.5458984375,-208.0
1756899051.7604837,0.5458984375,-166.0
1756899051.7641268,0.5458984375,-200.0
1756899051.7643776,0.5458984375,-279.0
1756899051.764695,0.5458984375,-343.0
1756899051.7669199,0.5458984375,-354.0
1756899051.76872,0.5458984375,-316.0
1756899051.770742,0.5458984375,-275.0
1756899051.7726724,0.5458984375,-282.0
1756899051.774652,0.5458984375,-349.0
1756899051.7765753,0.5458984375,-429.0
1756899051.7785525,0.5458984375,-464.0
1756899051.7794857,0.81201171875,-464.0
1756899051.803202,0.81201171875,-454.0
1756899051.804609,0.81201171875,-471.0
1756899051.8164716,0.8388671875,-471.0
1756899051.8190706,0.8388671875,-586.0
1756899051.8194735,0.8388671875,-772.0
1756899051.819809,0.8388671875,-926.0
1756899051.8201442,0.8388671875,-983.0
1756899051.8205175,0.8388671875,-998.0
1756899051.820854,0.8388671875,-1076.0
1756899051.8239467,0.8388671875,-1245.0
1756899051.825867,0.8388671875,-1412.0
1756899051.8264437,0.8388671875,-1457.0
1756899051.8267896,0.8388671875,-1354.0
1756899051.8269892,0.8388671875,-1183.0
1756899051.827211,0.8388671875,-1045.0
1756899051.8274078,0.8388671875,-965.0
1756899051.827604,0.8388671875,-878.0
1756899051.8278217,0.8388671875,-715.0
1756899051.8281183,0.8388671875,-483.0
1756899051.828832,0.8388671875,-262.0
1756899051.8296165,0.8388671875,-135.0
1756899051.830084,0.8388671875,-116.0
1756899051.8332257,0.8388671875,-140.0
1756899051.833629,0.8388671875,-146.0
1756899051.833855,0.8388671875,-134.0
1756899051.834053,0.8388671875,-149.0
1756899051.834252,0.8388671875,-207.0
1756899051.8344479,0.8388671875,-252.0
1756899051.8346446,0.8388671875,-220.0
1756899051.8354955,0.8388671875,-128.0
1756899051.8376703,0.8388671875,-65.0
1756899051.8396957,0.8388671875,-94.0
1756899051.8432384,0.8388671875,-168.0
1756899051.843488,0.8388671875,-188.0
1756899051.8454797,0.8388671875,-137.0
1756899051.8474085,0.8388671875,-96.0
1756899051.8499374,0.8388671875,-138.0
1756899051.8549588,0.650390625,-138.0
1756899051.8551753,0.650390625,-225.0
1756899051.8673952,0.650390625,-256.0
1756899051.8676336,0.650390625,-205.0
1756899051.867833,0.650390625,-148.0
1756899051.8680298,0.650390625,-163.0
1756899051.8682263,0.650390625,-207.0
1756899051.8684232,0.650390625,-185.0
1756899051.8686182,0.650390625,-82.0
1756899051.8688314,0.650390625,-2.0
1756899051.8784435,0.650390625,-48.0
1756899051.878683,0.650390625,-193.0
1756899051.8788414,0.650390625,-307.0
1756899051.8790495,0.650390625,-301.0
1756899051.8792102,0.650390625,-217.0
1756899051.8793652,0.650390625,-171.0
1756899051.8809772,0.650390625,-226.0
1756899051.8831322,0.650390625,-329.0
1756899051.8848627,0.650390625,-370.0
1756899051.8867145,0.650390625,-301.0
1756899051.8886852,0.650390625,-189.0
1756899051.890669,0.650390625,-150.0
1756899051.8925743,0.650390625,-221.0
1756899051.8946335,0.650390625,-328.0
1756899051.8965883,0.650390625,-370.0
1756899051.900887,0.650390625,-323.0
1756899051.9030914,0.650390625,-266.0
1756899051.90334,0.650390625,-268.0
1756899051.903478,0.431640625,-268.0
1756899051.904884,0.431640625,-299.0
1756899051.9070292,0.431640625,-274.0
1756899051.908504,0.431640625,-180.0
1756899051.910271,0.431640625,-99.0
1756899051.9122171,0.431640625,-111.0
1756899051.9141855,0.431640625,-190.0
1756899051.9163346,0.431640625,-245.0
1756899051.918099,0.431640625,-237.0
1756899051.92021,0.431640625,-215.0
1756899051.9221125,0.431640625,-248.0
1756899051.9241197,0.431640625,-317.0
1756899051.9262137,0.431640625,-349.0
1756899051.928021,0.431640625,-312.0
1756899051.9298906,0.431640625,-248.0
1756899051.931876,0.431640625,-212.0
1756899051.9338596,0.431640625,-213.0
1756899051.9379687,0.2032470703125,-213.0
1756899051.9380386,0.2032470703125,-217.0
1756899051.9382226,0.2032470703125,-207.0
1756899051.9397578,0.2032470703125,-201.0
1756899051.941826,0.2032470703125,-222.0
1756899051.9443831,0.2032470703125,-269.0
1756899051.9458072,0.2032470703125,-327.0
1756899051.947564,0.2032470703125,-382.0
1756899051.9495807,0.2032470703125,-426.0
1756899051.9515529,0.2032470703125,-451.0
1756899051.9537976,0.2032470703125,-444.0
1756899051.9556444,0.2032470703125,-409.0
1756899051.957469,0.2032470703125,-371.0
1756899051.9596057,0.2032470703125,-350.0
1756899051.9617968,0.2032470703125,-353.0
1756899051.9652648,0.2032470703125,-356.0
1756899051.9653575,0.2032470703125,-335.0
1756899051.9671671,0.2032470703125,-290.0
1756899051.9690726,0.2032470703125,-250.0
1756899051.9717512,0.2032470703125,-259.0
1756899051.9730935,0.2032470703125,-309.0
1756899051.9750555,0.2032470703125,-345.0
1756899051.9762003,0.08819580078125,-345.0
1756899051.9772513,0.08819580078125,-320.0
1756899051.9789743,0.08819580078125,-256.0
1756899051.980946,0.08819580078125,-225.0
1756899051.983156,0.08819580078125,-267.0
1756899051.9848058,0.08819580078125,-343.0
1756899051.9870315,0.08819580078125,-378.0
1756899051.9889889,0.08819580078125,-362.0
1756899051.9909925,0.08819580078125,-349.0
1756899051.9954395,0.08819580078125,-386.0
1756899051.9955559,0.08819580078125,-443.0
1756899051.9966698,0.08819580078125,-460.0
1756899051.9987538,0.08819580078125,-427.0
1756899052.0012848,0.08819580078125,-388.0
1756899052.0025852,0.08819580078125,-385.0
1756899052.0051494,0.08819580078125,-399.0
1756899052.0081983,0.08819580078125,-391.0
1756899052.0091772,0.08819580078125,-356.0
1756899052.0110009,0.08819580078125,-326.0
1756899052.0124133,0.08819580078125,-322.0
1756899052.0144196,0.08819580078125,-336.0
1756899052.014796,0.0223541259765625,-336.0
1756899052.0163097,0.0223541259765625,-359.0
1756899052.0182385,0.0223541259765625,-388.0
1756899052.0202549,0.0223541259765625,-415.0
1756899052.0221906,0.0223541259765625,-419.0
1756899052.0242822,0.0223541259765625,-388.0
1756899052.0261624,0.0223541259765625,-354.0
1756899052.028093,0.0223541259765625,-366.0
1756899052.0300412,0.0223541259765625,-421.0
1756899052.0330632,0.0223541259765625,-463.0
1756899052.0340486,0.0223541259765625,-445.0
1756899052.0382688,0.0223541259765625,-399.0
1756899052.0401,0.0223541259765625,-394.0
1756899052.0402164,0.0223541259765625,-460.0
1756899052.0418742,0.0223541259765625,-546.0
1756899052.0438542,0.0223541259765625,-572.0
1756899052.045972,0.0223541259765625,-522.0
1756899052.0478504,0.0223541259765625,-462.0
1756899052.049718,0.0223541259765625,-460.0
1756899052.051772,0.0223541259765625,-519.0
1756899052.053627,0.0223541259765625,-570.0
1756899052.0575664,0.0223541259765625,-554.0
1756899052.0577343,0.0223541259765625,-487.0
1756899052.059502,0.0223541259765625,-443.0
1756899052.06148,0.0223541259765625,-459.0
1756899052.0634415,0.0223541259765625,-498.0
1756899052.0640247,-0.09613037109375,-498.0
1756899052.0653992,-0.09613037109375,-499.0
1756899052.0674348,-0.09613037109375,-454.0
1756899052.0693762,-0.09613037109375,-417.0
1756899052.0714474,-0.09613037109375,-432.0
1756899052.0732694,-0.09613037109375,-484.0
1756899052.0755723,-0.09613037109375,-517.0
1756899052.0780797,-0.09613037109375,-513.0
1756899052.079204,-0.09613037109375,-505.0
1756899052.081331,-0.09613037109375,-538.0
1756899052.0832624,-0.09613037109375,-603.0
1756899052.0851202,-0.09613037109375,-651.0
1756899052.0872183,-0.09613037109375,-648.0
1756899052.0890567,-0.09613037109375,-607.0
1756899052.0910225,-0.09613037109375,-575.0
1756899052.0931501,-0.09613037109375,-594.0
1756899052.0951045,-0.09613037109375,-647.0
1756899052.0970972,-0.09613037109375,-685.0
1756899052.097307,-0.18212890625,-685.0
1756899052.0990999,-0.18212890625,-673.0
1756899052.1010437,-0.18212890625,-623.0
1756899052.1030035,-0.18212890625,-585.0
1756899052.1050804,-0.18212890625,-601.0
1756899052.107058,-0.18212890625,-665.0
1756899052.1088698,-0.18212890625,-719.0
1756899052.112359,-0.18212890625,-723.0
1756899052.1133065,-0.18212890625,-680.0
1756899052.1324196,-0.18212890625,-626.0
1756899052.1325624,-0.18212890625,-599.0
1756899052.1326532,-0.18212890625,-602.0
1756899052.1327226,-0.18212890625,-613.0
1756899052.1328657,-0.18212890625,-603.0
1756899052.132934,-0.18212890625,-563.0
1756899052.1329958,-0.18212890625,-513.0
1756899052.1330707,-0.18212890625,-484.0
1756899052.133263,-0.18212890625,-494.0
1756899052.1333444,-0.18212890625,-524.0
1756899052.1349595,-0.18212890625,-528.0
1756899052.1381693,-0.18212890625,-486.0
1756899052.1382692,-0.18212890625,-431.0
1756899052.1401327,-0.18212890625,-423.0
1756899052.149777,-0.270263671875,-423.0
1756899052.150563,-0.270263671875,-479.0
1756899052.1507463,-0.270263671875,-553.0
1756899052.152466,-0.270263671875,-587.0
1756899052.1525471,-0.270263671875,-579.0
1756899052.1525953,-0.270263671875,-575.0
1756899052.1526783,-0.270263671875,-606.0
1756899052.1540682,-0.270263671875,-637.0
1756899052.1562889,-0.270263671875,-613.0
1756899052.160384,-0.270263671875,-528.0
1756899052.1606908,-0.270263671875,-436.0
1756899052.1617637,-0.270263671875,-397.0
1756899052.164091,-0.270263671875,-418.0
1756899052.1658132,-0.270263671875,-451.0
1756899052.167831,-0.270263671875,-454.0
1756899052.1697023,-0.270263671875,-436.0
1756899052.1719282,-0.270263671875,-444.0
1756899052.173567,-0.270263671875,-509.0
1756899052.175739,-0.270263671875,-624.0
1756899052.1772108,-0.3681640625,-624.0
1756899052.1777585,-0.3681640625,-741.0
1756899052.1806312,-0.3681640625,-792.0
1756899052.1817987,-0.3681640625,-744.0
1756899052.1835144,-0.3681640625,-626.0
1756899052.1869588,-0.3681640625,-517.0
1756899052.187788,-0.3681640625,-489.0
1756899052.1894636,-0.3681640625,-530.0
1756899052.1936526,-0.3681640625,-563.0
1756899052.1939662,-0.3681640625,-525.0
1756899052.1953063,-0.3681640625,-435.0
1756899052.1973853,-0.3681640625,-383.0
1756899052.1993363,-0.3681640625,-441.0
1756899052.2015328,-0.3681640625,-588.0
1756899052.203232,-0.3681640625,-724.0
1756899052.2053885,-0.3681640625,-760.0
1756899052.2072058,-0.3681640625,-698.0
1756899052.2092047,-0.3681640625,-613.0
1756899052.2118912,-0.3681640625,-576.0
1756899052.2129805,-0.3681640625,-585.0
1756899052.2159224,-0.471923828125,-585.0
1756899052.2171106,-0.471923828125,-585.0
1756899052.2172704,-0.471923828125,-539.0
1756899052.2208111,-0.471923828125,-471.0
1756899052.220965,-0.471923828125,-443.0
1756899052.2227895,-0.471923828125,-475.0
1756899052.224828,-0.471923828125,-528.0
1756899052.2266924,-0.471923828125,-547.0
1756899052.228744,-0.471923828125,-524.0
1756899052.2333083,-0.471923828125,-502.0
1756899052.2333715,-0.471923828125,-522.0
1756899052.2350442,-0.471923828125,-565.0
1756899052.2367287,-0.471923828125,-591.0
1756899052.2409034,-0.471923828125,-581.0
1756899052.2431905,-0.471923828125,-550.0
1756899052.243568,-0.471923828125,-524.0
1756899052.244553,-0.471923828125,-504.0
1756899052.2464473,-0.471923828125,-493.0
1756899052.2492852,-0.471923828125,-507.0
1756899052.2506845,-0.471923828125,-552.0
1756899052.2524235,-0.471923828125,-609.0
1756899052.2544775,-0.471923828125,-639.0
1756899052.256519,-0.471923828125,-626.0
1756899052.2576928,-0.537109375,-626.0
1756899052.2583442,-0.537109375,-594.0
1756899052.260204,-0.537109375,-587.0
1756899052.2622375,-0.537109375,-620.0
1756899052.2642362,-0.537109375,-675.0
1756899052.2661881,-0.537109375,-716.0
1756899052.269146,-0.537109375,-720.0
1756899052.27059,-0.537109375,-674.0
1756899052.2724004,-0.537109375,-579.0
1756899052.275718,-0.537109375,-477.0
1756899052.2864735,-0.537109375,-439.0
1756899052.2871337,-0.537109375,-490.0
1756899052.2873492,-0.537109375,-572.0
1756899052.2895331,-0.537109375,-589.0
1756899052.2902293,-0.537109375,-500.0
1756899052.290459,-0.537109375,-383.0
1756899052.2906587,-0.537109375,-362.0
1756899052.292098,-0.537109375,-481.0
1756899052.2930443,-0.537109375,-658.0
1756899052.295041,-0.537109375,-762.0
1756899052.295642,-0.537109375,-734.0
1756899052.297828,-0.537109375,-635.0
1756899052.298079,-0.576171875,-635.0
1756899052.3002615,-0.576171875,-570.0
1756899052.3015537,-0.576171875,-585.0
1756899052.3038943,-0.576171875,-636.0
1756899052.3054848,-0.576171875,-643.0
1756899052.3075426,-0.576171875,-578.0
1756899052.3096638,-0.576171875,-482.0
1756899052.3177922,-0.576171875,-423.0
1756899052.3180423,-0.576171875,-424.0
1756899052.3182404,-0.576171875,-453.0
1756899052.3184361,-0.576171875,-473.0
1756899052.3193693,-0.576171875,-484.0
1756899052.3212438,-0.576171875,-504.0
1756899052.3232222,-0.576171875,-534.0
1756899052.3251765,-0.576171875,-552.0
1756899052.3277795,-0.576171875,-543.0
1756899052.3320315,-0.576171875,-522.0
1756899052.332617,-0.576171875,-521.0
1756899052.332968,-0.576171875,-546.0
1756899052.33839,-0.5068359375,-546.0
1756899052.3708441,-0.5068359375,-569.0
1756899052.3710692,-0.5068359375,-571.0
1756899052.3712656,-0.5068359375,-554.0
1756899052.3714628,-0.5068359375,-538.0
1756899052.371659,-0.5068359375,-531.0
1756899052.3718545,-0.5068359375,-530.0
1756899052.3720503,-0.5068359375,-531.0
1756899052.3722763,-0.5068359375,-532.0
1756899052.372474,-0.5068359375,-541.0
1756899052.372672,-0.5068359375,-561.0
1756899052.37287,-0.5068359375,-585.0
1756899052.3730671,-0.5068359375,-588.0
1756899052.375325,-0.5068359375,-557.0
1756899052.375635,-0.5068359375,-511.0
1756899052.3771305,-0.3505859375,-511.0
1756899052.3969626,-0.3505859375,-502.0
1756899052.3970869,-0.3505859375,-556.0
1756899052.3974667,-0.3505859375,-632.0
1756899052.398365,-0.3505859375,-656.0
1756899052.398438,-0.3505859375,-608.0
1756899052.3984823,-0.3505859375,-547.0
1756899052.398524,-0.3505859375,-545.0
1756899052.3985658,-0.3505859375,-606.0
1756899052.398608,-0.3505859375,-662.0
1756899052.3986528,-0.3505859375,-655.0
1756899052.3987,-0.3505859375,-593.0
1756899052.399033,-0.3505859375,-530.0
1756899052.3990796,-0.3505859375,-500.0
1756899052.399233,-0.3505859375,-495.0
1756899052.3992853,-0.3505859375,-483.0
1756899052.3994434,-0.3505859375,-457.0
1756899052.3994887,-0.3505859375,-435.0
1756899052.3995297,-0.3505859375,-431.0
1756899052.3995726,-0.3505859375,-448.0
1756899052.3996542,-0.3505859375,-467.0
1756899052.417431,-0.02813720703125,-467.0
1756899052.4233353,-0.02813720703125,-463.0
1756899052.4235327,-0.02813720703125,-431.0
1756899052.4238453,-0.02813720703125,-407.0
1756899052.4239125,-0.02813720703125,-429.0
1756899052.4239712,-0.02813720703125,-489.0
1756899052.4240303,-0.02813720703125,-532.0
1756899052.424087,-0.02813720703125,-511.0
1756899052.4241447,-0.02813720703125,-444.0
1756899052.4242017,-0.02813720703125,-400.0
1756899052.4242773,-0.02813720703125,-426.0
1756899052.4243357,-0.02813720703125,-491.0
1756899052.4243922,-0.02813720703125,-536.0
1756899052.425268,-0.02813720703125,-537.0
1756899052.427175,-0.02813720703125,-528.0
1756899052.4291487,-0.02813720703125,-549.0
1756899052.4311106,-0.02813720703125,-582.0
1756899052.438381,-0.02813720703125,-585.0
1756899052.4386852,-0.02813720703125,-538.0
1756899052.4389431,-0.02813720703125,-480.0
1756899052.4393165,-0.02813720703125,-461.0
1756899052.4413137,-0.02813720703125,-484.0
1756899052.4431627,-0.02813720703125,-494.0
1756899052.4572804,0.416015625,-494.0
1756899052.4641745,0.416015625,-458.0
1756899052.4644055,0.416015625,-401.0
1756899052.4646206,0.416015625,-381.0
1756899052.4648178,0.416015625,-422.0
1756899052.4653523,0.416015625,-484.0
1756899052.4655542,0.416015625,-507.0
1756899052.4657507,0.416015625,-474.0
1756899052.465946,0.416015625,-418.0
1756899052.4661405,0.416015625,-381.0
1756899052.4663377,0.416015625,-365.0
1756899052.4665368,0.416015625,-343.0
1756899052.4667332,0.416015625,-309.0
1756899052.4694078,0.416015625,-289.0
1756899052.4911122,0.416015625,-307.0
1756899052.491358,0.416015625,-352.0
1756899052.4915583,0.416015625,-397.0
1756899052.491757,0.416015625,-431.0
1756899052.4919522,0.416015625,-473.0
1756899052.492149,0.416015625,-540.0
1756899052.492346,0.416015625,-615.0
1756899052.492542,0.416015625,-668.0
1756899052.4927382,0.416015625,-695.0
1756899052.4929345,0.416015625,-739.0
1756899052.4931297,0.416015625,-839.0
1756899052.4933255,0.416015625,-977.0
1756899052.4946072,0.416015625,-1095.0
1756899052.496407,0.416015625,-1159.0
1756899052.497991,0.46533203125,-1159.0
1756899052.498318,0.46533203125,-1209.0
1756899052.500171,0.46533203125,-1307.0
1756899052.5020602,0.46533203125,-1457.0
1756899052.5039773,0.46533203125,-1579.0
1756899052.5060267,0.46533203125,-1588.0
1756899052.5079596,0.46533203125,-1469.0
1756899052.5100293,0.46533203125,-1286.0
1756899052.512555,0.46533203125,-1123.0
1756899052.5139387,0.46533203125,-1006.0
1756899052.515772,0.46533203125,-903.0
1756899052.517751,0.46533203125,-767.0
1756899052.5196824,0.46533203125,-596.0
1756899052.5218022,0.46533203125,-445.0
1756899052.5236852,0.46533203125,-369.0
1756899052.525972,0.46533203125,-361.0
1756899052.5278947,0.46533203125,-365.0
1756899052.5296023,0.46533203125,-339.0
1756899052.5327823,0.46533203125,-295.0
1756899052.5334766,0.46533203125,-268.0
1756899052.536787,0.46533203125,-260.0
1756899052.5375316,0.46533203125,-236.0
1756899052.538896,0.3974609375,-236.0
1756899052.5415184,0.3974609375,-177.0
1756899052.5417511,0.3974609375,-142.0
1756899052.5433726,0.3974609375,-193.0
1756899052.5453217,0.3974609375,-303.0
1756899052.547236,0.3974609375,-365.0
1756899052.5496147,0.3974609375,-314.0
1756899052.5510638,0.3974609375,-213.0
1756899052.5532465,0.3974609375,-188.0
1756899052.5551834,0.3974609375,-273.0
1756899052.5579176,0.3974609375,-365.0
1756899052.561092,0.3974609375,-348.0
1756899052.5612142,0.3974609375,-229.0
1756899052.5629234,0.3974609375,-134.0
1756899052.564953,0.3974609375,-156.0
1756899052.5671902,0.3974609375,-256.0
1756899052.5690958,0.3974609375,-320.0
1756899052.577707,0.3974609375,-288.0
1756899052.5780187,0.3974609375,-220.0
1756899052.5782363,0.194580078125,-220.0
1756899052.5782416,0.194580078125,-210.0
1756899052.5782983,0.194580078125,-277.0
1756899052.5797687,0.194580078125,-335.0
1756899052.5806658,0.194580078125,-305.0
1756899052.5826414,0.194580078125,-223.0
1756899052.5847228,0.194580078125,-189.0
1756899052.5866013,0.194580078125,-243.0
1756899052.5885274,0.194580078125,-309.0
1756899052.5908692,0.194580078125,-278.0
1756899052.5927136,0.194580078125,-155.0
1756899052.5993931,0.194580078125,-78.0
1756899052.599969,0.194580078125,-138.0
1756899052.600382,0.194580078125,-273.0
1756899052.6014903,0.194580078125,-327.0
1756899052.6022632,0.194580078125,-244.0
1756899052.604238,0.194580078125,-133.0
1756899052.6062179,0.194580078125,-125.0
1756899052.6081786,0.194580078125,-215.0
1756899052.6101825,0.194580078125,-293.0
1756899052.6122215,0.194580078125,-299.0
1756899052.6141145,0.194580078125,-289.0
1756899052.616152,0.194580078125,-334.0
1756899052.6181204,0.194580078125,-408.0
1756899052.620091,-0.1009521484375,-408.0
1756899052.6219432,-0.1009521484375,-414.0
1756899052.622414,-0.1009521484375,-328.0
1756899052.624343,-0.1009521484375,-241.0
1756899052.6275265,-0.1009521484375,-245.0
1756899052.6288135,-0.1009521484375,-323.0
1756899052.6300168,-0.1009521484375,-365.0
1756899052.6319737,-0.1009521484375,-310.0
1756899052.6370432,-0.1009521484375,-217.0
1756899052.6373389,-0.1009521484375,-193.0
1756899052.639654,-0.1009521484375,-283.0
1756899052.6398873,-0.1009521484375,-425.0
1756899052.64167,-0.1009521484375,-504.0
1756899052.643616,-0.1009521484375,-473.0
1756899052.6455894,-0.1009521484375,-382.0
1756899052.6475766,-0.1009521484375,-325.0
1756899052.6495972,-0.1009521484375,-342.0
1756899052.654246,-0.1009521484375,-390.0
1756899052.6549954,-0.1009521484375,-394.0
1756899052.655414,-0.1009521484375,-324.0
1756899052.657407,-0.1009521484375,-228.0
1756899052.6579878,-0.2293701171875,-228.0
1756899052.6612098,-0.2293701171875,-189.0
1756899052.6614213,-0.2293701171875,-232.0
1756899052.6632743,-0.2293701171875,-319.0
1756899052.6655288,-0.2293701171875,-387.0
1756899052.6672177,-0.2293701171875,-405.0
1756899052.6695206,-0.2293701171875,-391.0
1756899052.6711867,-0.2293701171875,-380.0
1756899052.673207,-0.2293701171875,-388.0
1756899052.677791,-0.2293701171875,-402.0
1756899052.6781697,-0.2293701171875,-398.0
1756899052.682388,-0.2293701171875,-368.0
1756899052.682617,-0.2293701171875,-335.0
1756899052.6829503,-0.2293701171875,-326.0
1756899052.6849422,-0.2293701171875,-339.0
1756899052.6868763,-0.2293701171875,-343.0
1756899052.6893766,-0.2293701171875,-316.0
1756899052.6908455,-0.2293701171875,-289.0
1756899052.6927497,-0.2293701171875,-308.0
1756899052.6948268,-0.2293701171875,-369.0
1756899052.6976264,-0.2293701171875,-406.0
1756899052.6977215,-0.4375,-406.0
1756899052.6987815,-0.4375,-360.0
1756899052.7006762,-0.4375,-260.0
1756899052.7025318,-0.4375,-196.0
1756899052.704581,-0.4375,-236.0
1756899052.7102082,-0.4375,-352.0
1756899052.710447,-0.4375,-454.0
1756899052.7106464,-0.4375,-477.0
1756899052.7124157,-0.4375,-442.0
1756899052.73672,-0.4375,-418.0
1756899052.7445793,-0.427490234375,-418.0
1756899052.7466667,-0.427490234375,-446.0
1756899052.7479565,-0.427490234375,-496.0
1756899052.748173,-0.427490234375,-508.0
1756899052.7483716,-0.427490234375,-461.0
1756899052.7485685,-0.427490234375,-388.0
1756899052.748765,-0.427490234375,-335.0
1756899052.748962,-0.427490234375,-317.0
1756899052.749157,-0.427490234375,-317.0
1756899052.7493567,-0.427490234375,-321.0
1756899052.7495563,-0.427490234375,-337.0
1756899052.7497532,-0.427490234375,-368.0
1756899052.7499485,-0.427490234375,-388.0
1756899052.7501447,-0.427490234375,-383.0
1756899052.750341,-0.427490234375,-382.0
1756899052.7505834,-0.427490234375,-423.0
1756899052.7507813,-0.427490234375,-484.0
1756899052.750979,-0.427490234375,-486.0
1756899052.7511764,-0.427490234375,-403.0
1756899052.752011,-0.427490234375,-314.0
1756899052.7537642,-0.427490234375,-320.0
1756899052.7558122,-0.427490234375,-412.0
1756899052.7576616,-0.427490234375,-480.0
1756899052.764831,-0.427490234375,-446.0
1756899052.7673006,-0.427490234375,-369.0
1756899052.7675626,-0.427490234375,-357.0
1756899052.7677631,-0.427490234375,-426.0
1756899052.767971,-0.427490234375,-490.0
1756899052.7696433,-0.427490234375,-483.0
1756899052.771555,-0.427490234375,-444.0
1756899052.7748141,-0.427490234375,-448.0
1756899052.7757673,-0.427490234375,-499.0
1756899052.7773762,-0.427490234375,-529.0
1756899052.7782714,-0.420654296875,-529.0
1756899052.77946,-0.420654296875,-501.0
1756899052.781371,-0.420654296875,-457.0
1756899052.7833867,-0.420654296875,-459.0
1756899052.7852817,-0.420654296875,-507.0
1756899052.7871463,-0.420654296875,-553.0
1756899052.789106,-0.420654296875,-566.0
1756899052.7910755,-0.420654296875,-553.0
1756899052.7932744,-0.420654296875,-531.0
1756899052.7951484,-0.420654296875,-505.0
1756899052.796972,-0.420654296875,-487.0
1756899052.7990258,-0.420654296875,-506.0
1756899052.8014278,-0.420654296875,-577.0
1756899052.8028996,-0.420654296875,-666.0
1756899052.8068871,-0.420654296875,-712.0
1756899052.80717,-0.420654296875,-683.0
1756899052.8087308,-0.420654296875,-614.0
1756899052.8109078,-0.420654296875,-587.0
1756899052.8127105,-0.420654296875,-652.0
1756899052.8148525,-0.420654296875,-765.0
1756899052.8167014,-0.420654296875,-824.0
1756899052.8188431,-0.420654296875,-772.0
1756899052.8205752,-0.420654296875,-646.0
1756899052.822847,-0.420654296875,-544.0
1756899052.8245716,-0.420654296875,-534.0
1756899052.8264005,-0.420654296875,-586.0
1756899052.8357344,-0.420654296875,-626.0
1756899052.8358586,-0.43994140625,-626.0
1756899052.8479774,-0.43994140625,-609.0
1756899052.848428,-0.43994140625,-555.0
1756899052.8486557,-0.43994140625,-514.0
1756899052.848863,-0.43994140625,-518.0
1756899052.8490834,-0.43994140625,-579.0
1756899052.849387,-0.43994140625,-697.0
1756899052.8496046,-0.43994140625,-834.0
1756899052.8498416,-0.43994140625,-917.0
1756899052.850061,-0.43994140625,-886.0
1756899052.8502643,-0.43994140625,-764.0
1756899052.8509216,-0.43994140625,-659.0
1756899052.8520713,-0.43994140625,-656.0
1756899052.8541653,-0.43994140625,-724.0
1756899052.8567848,-0.43994140625,-734.0
1756899052.8581214,-0.51123046875,-734.0
1756899052.8615956,-0.51123046875,-604.0
1756899052.89503,-0.51123046875,-393.0
1756899052.8958247,-0.51123046875,-256.0
1756899052.8971353,-0.51123046875,-293.0
1756899052.8976886,-0.51123046875,-456.0
1756899052.8980331,-0.51123046875,-609.0
1756899052.8982377,-0.51123046875,-653.0
1756899052.8984349,-0.51123046875,-611.0
1756899052.8986318,-0.51123046875,-585.0
1756899052.8988285,-0.51123046875,-645.0
1756899052.8990579,-0.51123046875,-741.0
1756899052.899256,-0.51123046875,-772.0
1756899052.8994997,-0.51123046875,-696.0
1756899052.8997734,-0.51123046875,-580.0
1756899052.9002028,-0.51123046875,-527.0
1756899052.9015431,-0.51123046875,-563.0
1756899052.901752,-0.51123046875,-617.0
1756899052.9020064,-0.51123046875,-613.0
1756899052.9022703,-0.51123046875,-570.0
1756899052.9023218,-0.62060546875,-570.0
1756899052.9025252,-0.62060546875,-573.0
1756899052.9027245,-0.62060546875,-656.0
1756899052.9036589,-0.62060546875,-749.0
1756899052.9044216,-0.62060546875,-766.0
1756899052.9066446,-0.62060546875,-696.0
1756899052.906862,-0.62060546875,-621.0
1756899052.9070868,-0.62060546875,-609.0
1756899052.9090312,-0.62060546875,-644.0
1756899052.9110022,-0.62060546875,-652.0
1756899052.913234,-0.62060546875,-590.0
1756899052.9149058,-0.62060546875,-500.0
1756899052.919207,-0.62060546875,-458.0
1756899052.919587,-0.62060546875,-487.0
1756899052.9211097,-0.62060546875,-551.0
1756899052.9230056,-0.62060546875,-591.0
1756899052.925093,-0.62060546875,-591.0
1756899052.9271584,-0.62060546875,-581.0
1756899052.9287791,-0.62060546875,-596.0
1756899052.9311612,-0.62060546875,-632.0
1756899052.9327176,-0.62060546875,-660.0
1756899052.9347246,-0.62060546875,-665.0
1756899052.9368775,-0.62060546875,-665.0
1756899052.9377608,-0.6279296875,-665.0
1756899052.9386148,-0.6279296875,-679.0
1756899052.9532783,-0.6279296875,-696.0
1756899052.9573288,-0.6279296875,-692.0
1756899052.9576957,-0.6279296875,-668.0
1756899052.957924,-0.6279296875,-651.0
1756899052.9623425,-0.6279296875,-653.0
1756899052.9631274,-0.6279296875,-657.0
1756899052.9641635,-0.6279296875,-649.0
1756899052.9644582,-0.6279296875,-644.0
1756899052.9646628,-0.6279296875,-678.0
1756899052.964859,-0.6279296875,-738.0
1756899052.9650557,-0.6279296875,-764.0
1756899052.9652972,-0.6279296875,-730.0
1756899052.966091,-0.6279296875,-698.0
1756899052.9664638,-0.6279296875,-732.0
1756899052.9718497,-0.6279296875,-800.0
1756899052.972121,-0.6279296875,-795.0
1756899052.9725866,-0.6279296875,-686.0
1756899052.974082,-0.6279296875,-576.0
1756899052.9759724,-0.6279296875,-584.0
1756899052.9779973,-0.6279296875,-689.0
1756899052.980107,-0.6279296875,-736.0
1756899052.9806793,-0.52392578125,-736.0
1756899052.982138,-0.52392578125,-655.0
1756899052.983897,-0.52392578125,-547.0
1756899052.9857266,-0.52392578125,-553.0
1756899052.987758,-0.52392578125,-649.0
1756899052.9897268,-0.52392578125,-686.0
1756899052.9916885,-0.52392578125,-598.0
1756899052.9985611,-0.52392578125,-500.0
1756899052.9988205,-0.52392578125,-542.0
1756899052.999027,-0.52392578125,-695.0
1756899052.999492,-0.52392578125,-776.0
1756899053.0028234,-0.52392578125,-690.0
1756899053.0034168,-0.52392578125,-561.0
1756899053.0101912,-0.52392578125,-575.0
1756899053.0105662,-0.52392578125,-740.0
1756899053.0108113,-0.52392578125,-872.0
1756899053.0116522,-0.52392578125,-828.0
1756899053.01338,-0.52392578125,-675.0
1756899053.015299,-0.52392578125,-602.0
1756899053.0172896,-0.52392578125,-679.0
1756899053.017649,-0.1578369140625,-679.0
1756899053.0192194,-0.1578369140625,-783.0
1756899053.0211637,-0.1578369140625,-769.0
1756899053.023137,-0.1578369140625,-647.0
1756899053.0251102,-0.1578369140625,-560.0
1756899053.027818,-0.1578369140625,-595.0
1756899053.0290327,-0.1578369140625,-695.0
1756899053.0309997,-0.1578369140625,-740.0
1756899053.046995,-0.1578369140625,-712.0
1756899053.0472994,-0.1578369140625,-699.0
1756899053.0476048,-0.1578369140625,-760.0
1756899053.0480764,-0.1578369140625,-837.0
1756899053.0482898,-0.1578369140625,-832.0
1756899053.0486343,-0.1578369140625,-743.0
1756899053.0490851,-0.1578369140625,-669.0
1756899053.0494287,-0.1578369140625,-700.0
1756899053.0506413,-0.1578369140625,-796.0
1756899053.051321,-0.1578369140625,-835.0
1756899053.052632,-0.1578369140625,-761.0
1756899053.055259,-0.1578369140625,-654.0
1756899053.0565124,-0.1578369140625,-638.0
1756899053.0580258,0.6083984375,-638.0
1756899053.0585418,0.6083984375,-742.0
1756899053.0605326,0.6083984375,-877.0
1756899053.062482,0.6083984375,-916.0
1756899053.06445,0.6083984375,-841.0
1756899053.066412,0.6083984375,-745.0
1756899053.068387,0.6083984375,-725.0
1756899053.0703342,0.6083984375,-790.0
1756899053.088535,0.6083984375,-863.0
1756899053.0895636,0.6083984375,-858.0
1756899053.0898843,0.6083984375,-778.0
1756899053.090901,0.6083984375,-698.0
1756899053.0911107,0.6083984375,-677.0
1756899053.0913105,0.6083984375,-703.0
1756899053.0915096,0.6083984375,-716.0
1756899053.0917232,0.6083984375,-688.0
1756899053.0922678,0.6083984375,-648.0
1756899053.0971582,0.9423828125,-648.0
1756899053.0989287,0.9423828125,-641.0
1756899053.0992591,0.9423828125,-664.0
1756899053.0994911,0.9423828125,-665.0
1756899053.099704,0.9423828125,-614.0
1756899053.0999165,0.9423828125,-546.0
1756899053.1001272,0.9423828125,-524.0
1756899053.1018944,0.9423828125,-568.0
1756899053.1038718,0.9423828125,-631.0
1756899053.1106446,0.9423828125,-651.0
1756899053.1109142,0.9423828125,-624.0
1756899053.1111257,0.9423828125,-602.0
1756899053.1117213,0.9423828125,-634.0
1756899053.1135633,0.9423828125,-709.0
1756899053.1155534,0.9423828125,-770.0
1756899053.117481,0.9423828125,-779.0
1756899053.1273303,0.9423828125,-739.0
1756899053.1274338,0.9423828125,-689.0
1756899053.1274984,0.9423828125,-658.0
1756899053.1277635,0.9423828125,-640.0
1756899053.127981,0.9423828125,-615.0
1756899053.1291254,0.9423828125,-583.0
1756899053.1324127,0.9423828125,-551.0
1756899053.133392,0.9423828125,-523.0
1756899053.135105,0.9423828125,-503.0
1756899053.1373348,0.9423828125,-498.0
1756899053.1390378,0.9423828125,-516.0
1756899053.141102,0.9423828125,-558.0
1756899053.1420832,1.0224609375,-558.0
1756899053.1703305,1.0224609375,-597.0
1756899053.170619,1.0224609375,-607.0
1756899053.1708338,1.0224609375,-599.0
1756899053.1710355,1.0224609375,-611.0
1756899053.171403,1.0224609375,-659.0
1756899053.1718197,1.0224609375,-709.0
1756899053.1724226,1.0224609375,-712.0
1756899053.175719,1.0224609375,-666.0
1756899053.1772075,0.85595703125,-666.0
1756899053.1788642,0.85595703125,-627.0
1756899053.179085,0.85595703125,-646.0
1756899053.1794646,0.85595703125,-709.0
1756899053.1801145,0.85595703125,-752.0
1756899053.1803398,0.85595703125,-739.0
1756899053.1805742,0.85595703125,-695.0
1756899053.1807747,0.85595703125,-679.0
1756899053.1809745,0.85595703125,-719.0
1756899053.1811736,0.85595703125,-780.0
1756899053.1813786,0.85595703125,-803.0
1756899053.1815755,0.85595703125,-765.0
1756899053.1817732,0.85595703125,-714.0
1756899053.1824784,0.85595703125,-725.0
1756899053.1842546,0.85595703125,-819.0
1756899053.1862276,0.85595703125,-949.0
1756899053.1883905,0.85595703125,-1047.0
1756899053.1902914,0.85595703125,-1095.0
1756899053.1923032,0.85595703125,-1151.0
1756899053.1941645,0.85595703125,-1268.0
1756899053.1973472,0.85595703125,-1441.0
1756899053.1982152,0.85595703125,-1609.0
1756899053.2005086,0.85595703125,-1716.0
1756899053.2022069,0.85595703125,-1744.0
1756899053.2039683,0.85595703125,-1714.0
1756899053.2061644,0.85595703125,-1641.0
1756899053.2082484,0.85595703125,-1534.0
1756899053.2098837,0.85595703125,-1399.0
1756899053.2118483,0.85595703125,-1244.0
1756899053.213857,0.85595703125,-1069.0
1756899053.2157795,0.85595703125,-875.0
1756899053.217773,0.85595703125,-682.0
1756899053.2225373,0.85595703125,-530.0
1756899053.2228887,0.85595703125,-446.0
1756899053.2291758,0.5634765625,-446.0
1756899053.2374513,0.5634765625,-420.0
1756899053.237743,0.5634765625,-421.0
1756899053.237973,0.5634765625,-423.0
1756899053.2382119,0.5634765625,-428.0
1756899053.2384617,0.5634765625,-442.0
1756899053.2387831,0.5634765625,-463.0
1756899053.2389839,0.5634765625,-483.0
1756899053.239399,0.5634765625,-499.0
1756899053.2398393,0.5634765625,-505.0
1756899053.2422683,0.5634765625,-498.0
1756899053.2436922,0.5634765625,-485.0
1756899053.248344,0.5634765625,-472.0
1756899053.2485824,0.5634765625,-462.0
1756899053.2505414,0.5634765625,-452.0
1756899053.2527413,0.5634765625,-451.0
1756899053.2530994,0.5634765625,-477.0
1756899053.2551432,0.5634765625,-523.0
1756899053.2575505,0.5634765625,-547.0
1756899053.259096,0.5634765625,-502.0
1756899053.259107,0.310546875,-502.0
1756899053.261029,0.310546875,-404.0
1756899053.2629778,0.310546875,-337.0
1756899053.265,0.310546875,-382.0
1756899053.2669814,0.310546875,-513.0
1756899053.2688885,0.310546875,-617.0
1756899053.2708476,0.310546875,-606.0
1756899053.2728856,0.310546875,-519.0
1756899053.2975557,0.1739501953125,-519.0
1756899053.2987642,0.1739501953125,-474.0
1756899053.299097,0.1739501953125,-531.0
1756899053.2997599,0.1739501953125,-638.0
1756899053.3000283,0.1739501953125,-698.0
1756899053.301992,0.1739501953125,-674.0
1756899053.3023484,0.1739501953125,-613.0
1756899053.3079782,0.1739501953125,-568.0
1756899053.3086143,0.1739501953125,-541.0
1756899053.3088765,0.1739501953125,-510.0
1756899053.3092034,0.1739501953125,-492.0
1756899053.3102052,0.1739501953125,-512.0
1756899053.3104389,0.1739501953125,-559.0
1756899053.31064,0.1739501953125,-574.0
1756899053.3108387,0.1739501953125,-525.0
1756899053.3110366,0.1739501953125,-462.0
1756899053.311234,0.1739501953125,-456.0
1756899053.3114321,0.1739501953125,-517.0
1756899053.3116295,0.1739501953125,-582.0
1756899053.3118272,0.1739501953125,-598.0
1756899053.3124511,0.1739501953125,-588.0
1756899053.3143632,0.1739501953125,-595.0
1756899053.3160248,0.1739501953125,-616.0
1756899053.3246312,0.1739501953125,-609.0
1756899053.3248758,0.1739501953125,-572.0
1756899053.3250806,0.1739501953125,-566.0
1756899053.3252814,0.1739501953125,-631.0
1756899053.3259468,0.1739501953125,-725.0
1756899053.3282392,0.1739501953125,-753.0
1756899053.332075,0.1739501953125,-684.0
1756899053.3323102,0.1739501953125,-589.0
1756899053.3338327,0.1739501953125,-568.0
1756899053.337986,0.055023193359375,-568.0
1756899053.3421533,0.055023193359375,-650.0
1756899053.3424237,0.055023193359375,-757.0
1756899053.3426363,0.055023193359375,-792.0
1756899053.342841,0.055023193359375,-726.0
1756899053.3435106,0.055023193359375,-615.0
1756899053.346095,0.055023193359375,-551.0
1756899053.3478217,0.055023193359375,-584.0
1756899053.3498337,0.055023193359375,-671.0
1756899053.351628,0.055023193359375,-721.0
1756899053.3533926,0.055023193359375,-682.0
1756899053.3781397,-0.119384765625,-682.0
1756899053.3826523,-0.119384765625,-598.0
1756899053.3830047,-0.119384765625,-561.0
1756899053.3832138,-0.119384765625,-614.0
1756899053.3834114,-0.119384765625,-704.0
1756899053.3836095,-0.119384765625,-748.0
1756899053.3838277,-0.119384765625,-727.0
1756899053.3840256,-0.119384765625,-685.0
1756899053.384223,-0.119384765625,-672.0
1756899053.38477,-0.119384765625,-680.0
1756899053.3850026,-0.119384765625,-676.0
1756899053.3852656,-0.119384765625,-649.0
1756899053.3860862,-0.119384765625,-627.0
1756899053.3865583,-0.119384765625,-628.0
1756899053.3867612,-0.119384765625,-638.0
1756899053.3870053,-0.119384765625,-634.0
1756899053.3872244,-0.119384765625,-622.0
1756899053.387422,-0.119384765625,-630.0
1756899053.388752,-0.119384765625,-678.0
1756899053.3907561,-0.119384765625,-742.0
1756899053.3931575,-0.119384765625,-778.0
1756899053.3951252,-0.119384765625,-757.0
1756899053.3975544,-0.119384765625,-705.0
1756899053.398687,-0.119384765625,-673.0
1756899053.4006705,-0.119384765625,-688.0
1756899053.4026098,-0.119384765625,-716.0
1756899053.4102418,-0.119384765625,-709.0
1756899053.410592,-0.119384765625,-661.0
1756899053.411023,-0.119384765625,-615.0
1756899053.4111023,-0.119384765625,-630.0
1756899053.412216,-0.119384765625,-697.0
1756899053.414166,-0.119384765625,-747.0
1756899053.4161184,-0.119384765625,-729.0
1756899053.4179204,-0.34423828125,-729.0
1756899053.4180932,-0.34423828125,-655.0
1756899053.4202595,-0.34423828125,-584.0
1756899053.4230583,-0.34423828125,-556.0
1756899053.4241068,-0.34423828125,-561.0
1756899053.426068,-0.34423828125,-567.0
1756899053.4279768,-0.34423828125,-556.0
1756899053.4299672,-0.34423828125,-530.0
1756899053.4409966,-0.34423828125,-493.0
1756899053.4410934,-0.34423828125,-454.0
1756899053.4411564,-0.34423828125,-437.0
1756899053.4412193,-0.34423828125,-467.0
1756899053.4412808,-0.34423828125,-529.0
1756899053.441717,-0.34423828125,-580.0
1756899053.443712,-0.34423828125,-593.0
1756899053.446265,-0.34423828125,-591.0
1756899053.447677,-0.34423828125,-615.0
1756899053.4498262,-0.34423828125,-664.0
1756899053.4516966,-0.34423828125,-707.0
1756899053.4537692,-0.34423828125,-725.0
1756899053.455653,-0.34423828125,-737.0
1756899053.4576614,-0.34423828125,-760.0
1756899053.4596586,-0.34423828125,-786.0
1756899053.4604018,-0.525390625,-786.0
1756899053.4616566,-0.525390625,-798.0
1756899053.4636848,-0.525390625,-797.0
1756899053.4656982,-0.525390625,-796.0
1756899053.467502,-0.525390625,-780.0
1756899053.469448,-0.525390625,-732.0
1756899053.4725344,-0.525390625,-670.0
1756899053.4746103,-0.525390625,-652.0
1756899053.475227,-0.525390625,-703.0
1756899053.4840634,-0.525390625,-765.0
1756899053.484349,-0.525390625,-758.0
1756899053.4849484,-0.525390625,-698.0
1756899053.4851475,-0.525390625,-686.0
1756899053.485269,-0.525390625,-776.0
1756899053.4869986,-0.525390625,-903.0
1756899053.4890032,-0.525390625,-944.0
1756899053.4909995,-0.525390625,-875.0
1756899053.4929144,-0.525390625,-789.0
1756899053.4952347,-0.525390625,-784.0
1756899053.496948,-0.525390625,-849.0
1756899053.4990475,-0.525390625,-896.0
1756899053.5008192,-0.525390625,-868.0
1756899053.5018392,-0.70849609375,-868.0
1756899053.5032556,-0.70849609375,-805.0
1756899053.5046823,-0.70849609375,-773.0
1756899053.5097926,-0.70849609375,-781.0
1756899053.510051,-0.70849609375,-787.0
1756899053.5107784,-0.70849609375,-758.0
1756899053.5129368,-0.70849609375,-724.0
1756899053.5166986,-0.70849609375,-735.0
1756899053.5170429,-0.70849609375,-798.0
1756899053.5194707,-0.70849609375,-858.0
1756899053.520451,-0.70849609375,-854.0
1756899053.522608,-0.70849609375,-786.0
1756899053.5246086,-0.70849609375,-717.0
1756899053.5265427,-0.70849609375,-719.0
1756899053.5283008,-0.70849609375,-793.0
1756899053.530348,-0.70849609375,-872.0
1756899053.5322387,-0.70849609375,-879.0
1756899053.5343864,-0.70849609375,-806.0
1756899053.5371046,-0.70849609375,-723.0
1756899053.5383456,-0.70849609375,-707.0
1756899053.538576,-0.818359375,-707.0
1756899053.5400696,-0.818359375,-761.0
1756899053.5420597,-0.818359375,-811.0
1756899053.5441744,-0.818359375,-796.0
1756899053.5484974,-0.818359375,-730.0
1756899053.5486362,-0.818359375,-681.0
1756899053.5498848,-0.818359375,-681.0
1756899053.5519116,-0.818359375,-692.0
1756899053.5539596,-0.818359375,-661.0
1756899053.555796,-0.818359375,-605.0
1756899053.5578544,-0.818359375,-597.0
1756899053.5597644,-0.818359375,-654.0
1756899053.5616987,-0.818359375,-704.0
1756899053.5649722,-0.818359375,-673.0
1756899053.5680354,-0.818359375,-594.0
1756899053.568718,-0.818359375,-581.0
1756899053.5696108,-0.818359375,-682.0
1756899053.5715468,-0.818359375,-807.0
1756899053.5735037,-0.818359375,-826.0
1756899053.575784,-0.818359375,-734.0
1756899053.5774257,-0.818359375,-652.0
1756899053.580474,-0.818359375,-676.0
1756899053.5825322,-0.818359375,-757.0
1756899053.5835512,-0.818359375,-777.0
1756899053.5853217,-0.818359375,-703.0
1756899053.5868456,-0.88330078125,-703.0
1756899053.587272,-0.88330078125,-628.0
1756899053.589342,-0.88330078125,-643.0
1756899053.591342,-0.88330078125,-719.0
1756899053.5936816,-0.88330078125,-757.0
1756899053.6228626,-0.8505859375,-757.0
1756899053.6234248,-0.8505859375,-706.0
1756899053.6245568,-0.8505859375,-627.0
1756899053.6305766,-0.8505859375,-607.0
1756899053.6308846,-0.8505859375,-651.0
1756899053.6319098,-0.8505859375,-689.0
1756899053.634739,-0.8505859375,-667.0
1756899053.639238,-0.8505859375,-607.0
1756899053.6395426,-0.8505859375,-572.0
1756899053.6405973,-0.8505859375,-589.0
1756899053.640935,-0.8505859375,-622.0
1756899053.642147,-0.8505859375,-629.0
1756899053.6434705,-0.8505859375,-605.0
1756899053.6435344,-0.8505859375,-588.0
1756899053.643588,-0.8505859375,-607.0
1756899053.6489775,-0.8505859375,-665.0
1756899053.649771,-0.8505859375,-737.0
1756899053.6501873,-0.8505859375,-793.0
1756899053.6502755,-0.8505859375,-812.0
1756899053.6507235,-0.8505859375,-784.0
1756899053.6509457,-0.8505859375,-738.0
1756899053.6510122,-0.8505859375,-712.0
1756899053.6510751,-0.8505859375,-723.0
1756899053.6511552,-0.8505859375,-742.0
1756899053.6512182,-0.8505859375,-726.0
1756899053.6512797,-0.8505859375,-672.0
1756899053.651398,-0.8505859375,-620.0
1756899053.6514626,-0.8505859375,-601.0
1756899053.6515248,-0.8505859375,-604.0
1756899053.6516051,-0.8505859375,-612.0
1756899053.652103,-0.8505859375,-638.0
1756899053.6541512,-0.8505859375,-709.0
1756899053.6555736,-0.9111328125,-709.0
1756899053.6560624,-0.9111328125,-794.0
1756899053.6580365,-0.9111328125,-822.0
1756899053.6600838,-0.9111328125,-760.0
1756899053.6620245,-0.9111328125,-668.0
1756899053.6640716,-0.9111328125,-630.0
1756899053.667494,-0.9111328125,-651.0
1756899053.6679652,-0.9111328125,-665.0
1756899053.6703074,-0.9111328125,-631.0
1756899053.6719785,-0.9111328125,-574.0
1756899053.6742258,-0.9111328125,-540.0
1756899053.686112,-0.9111328125,-534.0
1756899053.6863778,-0.9111328125,-540.0
1756899053.686506,-0.9111328125,-570.0
1756899053.6866243,-0.9111328125,-658.0
1756899053.686832,-0.9111328125,-780.0
1756899053.6869538,-0.9111328125,-844.0
1756899053.687676,-0.9111328125,-796.0
1756899053.6905055,-0.9111328125,-688.0
1756899053.6914062,-0.9111328125,-624.0
1756899053.6945684,-0.9111328125,-650.0
1756899053.6949098,-0.7861328125,-650.0
1756899053.6953404,-0.7861328125,-706.0
1756899053.6974065,-0.7861328125,-713.0
1756899053.6992893,-0.7861328125,-667.0
1756899053.7015722,-0.7861328125,-621.0
1756899053.7032065,-0.7861328125,-616.0
1756899053.7055047,-0.7861328125,-637.0
1756899053.7078197,-0.7861328125,-664.0
1756899053.7093058,-0.7861328125,-693.0
1756899053.7116318,-0.7861328125,-723.0
1756899053.713267,-0.7861328125,-730.0
1756899053.7178361,-0.7861328125,-688.0
1756899053.7179215,-0.7861328125,-608.0
1756899053.71903,-0.7861328125,-551.0
1756899053.7209127,-0.7861328125,-563.0
1756899053.7232518,-0.7861328125,-627.0
1756899053.724814,-0.7861328125,-691.0
1756899053.7267845,-0.7861328125,-719.0
1756899053.7288406,-0.7861328125,-727.0
1756899053.7307565,-0.7861328125,-751.0
1756899053.732846,-0.7861328125,-800.0
1756899053.7348084,-0.7861328125,-853.0
1756899053.7350152,-0.044708251953125,-853.0
1756899053.7385595,-0.044708251953125,-892.0
1756899053.7388232,-0.044708251953125,-906.0
1756899053.7413719,-0.044708251953125,-903.0
1756899053.742851,-0.044708251953125,-876.0
1756899053.7447486,-0.044708251953125,-820.0
1756899053.7468312,-0.044708251953125,-750.0
1756899053.7486396,-0.044708251953125,-691.0
1756899053.7506075,-0.044708251953125,-667.0
1756899053.7550225,-0.044708251953125,-673.0
1756899053.7551837,-0.044708251953125,-682.0
1756899053.756454,-0.044708251953125,-678.0
1756899053.7596076,-0.044708251953125,-673.0
1756899053.7623715,-0.044708251953125,-687.0
1756899053.7624743,-0.044708251953125,-726.0
1756899053.764267,-0.044708251953125,-782.0
1756899053.7661076,-0.044708251953125,-831.0
1756899053.768167,-0.044708251953125,-847.0
1756899053.7700493,-0.044708251953125,-827.0
1756899053.772085,-0.044708251953125,-786.0
1756899053.7739916,-0.044708251953125,-750.0
1756899053.7748487,0.62890625,-750.0
1756899053.7760024,0.62890625,-734.0
1756899053.7779174,0.62890625,-728.0
1756899053.7800221,0.62890625,-702.0
1756899053.7819963,0.62890625,-641.0
1756899053.7854178,0.62890625,-567.0
1756899053.786549,0.62890625,-514.0
1756899053.7956176,0.62890625,-496.0
1756899053.7958398,0.62890625,-510.0
1756899053.795993,0.62890625,-537.0
1756899053.79615,0.62890625,-568.0
1756899053.7962704,0.62890625,-595.0
1756899053.7977786,0.62890625,-600.0
1756899053.7996492,0.62890625,-584.0
1756899053.8015444,0.62890625,-574.0
1756899053.8044448,0.62890625,-608.0
1756899053.8054686,0.62890625,-684.0
1756899053.808837,0.62890625,-750.0
1756899053.809382,0.62890625,-755.0
1756899053.8113253,0.62890625,-712.0
1756899053.8133419,0.62890625,-685.0
1756899053.815851,0.62890625,-723.0
1756899053.8164127,1.1865234375,-723.0
1756899053.8190725,1.1865234375,-801.0
1756899053.8193467,1.1865234375,-843.0
1756899053.8233197,1.1865234375,-813.0
1756899053.8237906,1.1865234375,-743.0
1756899053.82532,1.1865234375,-693.0
1756899053.8274467,1.1865234375,-695.0
1756899053.8293066,1.1865234375,-722.0
1756899053.8311307,1.1865234375,-731.0
1756899053.8331146,1.1865234375,-714.0
1756899053.8350384,1.1865234375,-693.0
1756899053.8370302,1.1865234375,-685.0
1756899053.8389094,1.1865234375,-691.0
1756899053.8409524,1.1865234375,-687.0
1756899053.843001,1.1865234375,-647.0
1756899053.8451824,1.1865234375,-573.0
1756899053.8486457,1.1865234375,-507.0
1756899053.849129,1.1865234375,-495.0
1756899053.8518996,1.1865234375,-545.0
1756899053.8528895,1.1865234375,-610.0
1756899053.8548918,1.1865234375,-632.0
1756899053.856759,1.1865234375,-611.0
1756899053.858819,1.1865234375,-604.0
1756899053.8624291,1.35546875,-604.0
1756899053.862444,1.35546875,-662.0
1756899053.862855,1.35546875,-767.0
1756899053.868241,1.35546875,-860.0
1756899053.8735573,1.35546875,-900.0
1756899053.873611,1.35546875,-905.0
1756899053.873655,1.35546875,-909.0
1756899053.8736985,1.35546875,-923.0
1756899053.8783937,1.35546875,-949.0
1756899053.8784692,1.35546875,-1007.0
1756899053.878528,1.35546875,-1121.0
1756899053.8804173,1.35546875,-1273.0
1756899053.8824365,1.35546875,-1401.0
1756899053.884528,1.35546875,-1462.0
1756899053.8966017,1.1943359375,-1462.0
1756899053.89663,1.1943359375,-1484.0
1756899053.8979294,1.1943359375,-1529.0
1756899053.898077,1.1943359375,-1611.0
1756899053.8982184,1.1943359375,-1666.0
1756899053.8983421,1.1943359375,-1629.0
1756899053.8984601,1.1943359375,-1505.0
1756899053.8985784,1.1943359375,-1362.0
1756899053.8998423,1.1943359375,-1234.0
1756899053.9018712,1.1943359375,-1098.0
1756899053.922154,1.1943359375,-930.0
1756899053.9239504,1.1943359375,-765.0
1756899053.9243102,1.1943359375,-669.0
1756899053.9245646,1.1943359375,-652.0
1756899053.9263482,1.1943359375,-650.0
1756899053.926816,1.1943359375,-603.0
1756899053.9270153,1.1943359375,-533.0
1756899053.9276726,1.1943359375,-511.0
1756899053.927874,1.1943359375,-557.0
1756899053.9280798,1.1943359375,-626.0
1756899053.9282758,1.1943359375,-654.0
1756899053.9284801,1.1943359375,-640.0
1756899053.9287124,1.1943359375,-619.0
1756899053.9297423,1.1943359375,-608.0
1756899053.9317663,1.1943359375,-592.0
1756899053.933531,1.1943359375,-562.0
1756899053.9350288,0.78662109375,-562.0
1756899053.9356017,0.78662109375,-538.0
1756899053.9375248,0.78662109375,-540.0
1756899053.9414732,0.78662109375,-548.0
1756899053.941736,0.78662109375,-512.0
1756899053.943703,0.78662109375,-434.0
1756899053.9452343,0.78662109375,-382.0
1756899053.94779,0.78662109375,-427.0
1756899053.9509182,0.78662109375,-550.0
1756899053.9518032,0.78662109375,-638.0
1756899053.9531424,0.78662109375,-599.0
1756899053.9553442,0.78662109375,-477.0
1756899053.9570131,0.78662109375,-412.0
1756899053.9745302,0.78662109375,-482.0
1756899053.9750633,0.78662109375,-609.0
1756899053.9752665,0.78662109375,-637.0
1756899053.9754653,0.78662109375,-529.0
1756899053.9755392,0.419921875,-529.0
1756899053.975663,0.419921875,-403.0
1756899053.9758613,0.419921875,-395.0
1756899053.9760587,0.419921875,-493.0
1756899053.976258,0.419921875,-571.0
1756899053.9764547,0.419921875,-540.0
1756899053.976652,0.419921875,-454.0
1756899053.9787748,0.419921875,-421.0
1756899053.980598,0.419921875,-468.0
1756899053.9826057,0.419921875,-538.0
1756899053.9849765,0.419921875,-572.0
1756899053.9868257,0.419921875,-571.0
1756899053.9893706,0.419921875,-557.0
1756899053.9905248,0.419921875,-529.0
1756899053.9937716,0.419921875,-489.0
1756899053.9943397,0.419921875,-455.0
1756899053.9965856,0.419921875,-446.0
1756899053.998608,0.419921875,-444.0
1756899054.0134864,0.419921875,-418.0
1756899054.0137134,0.419921875,-381.0
1756899054.013962,0.419921875,-386.0
1756899054.0141602,0.419921875,-442.0
1756899054.0146372,0.419921875,-506.0
1756899054.014841,0.419921875,-523.0
1756899054.0150383,0.419921875,-509.0
1756899054.0152345,0.419921875,-509.0
1756899054.0159504,0.419921875,-517.0
1756899054.0162532,0.189208984375,-517.0
1756899054.017942,0.189208984375,-496.0
1756899054.019892,0.189208984375,-445.0
1756899054.0220332,0.189208984375,-410.0
1756899054.0252466,0.189208984375,-416.0
1756899054.0257852,0.189208984375,-422.0
1756899054.0277536,0.189208984375,-378.0
1756899054.0297866,0.189208984375,-311.0
1756899054.0317304,0.189208984375,-295.0
1756899054.0365016,0.189208984375,-349.0
1756899054.0371106,0.189208984375,-407.0
1756899054.0375695,0.189208984375,-409.0
1756899054.0395434,0.189208984375,-374.0
1756899054.041494,0.189208984375,-368.0
1756899054.0434804,0.189208984375,-401.0
1756899054.0455427,0.189208984375,-418.0
1756899054.0475664,0.189208984375,-388.0
1756899054.0494013,0.189208984375,-343.0
1756899054.05135,0.189208984375,-339.0
1756899054.0533435,0.189208984375,-373.0
1756899054.0552988,0.189208984375,-398.0
1756899054.0553007,-0.008575439453125,-398.0
1756899054.0572867,-0.008575439453125,-389.0
1756899054.0592487,-0.008575439453125,-376.0
1756899054.0612867,-0.008575439453125,-400.0
1756899054.063251,-0.008575439453125,-451.0
1756899054.0651908,-0.008575439453125,-476.0
1756899054.0673585,-0.008575439453125,-445.0
1756899054.069191,-0.008575439453125,-385.0
1756899054.0777338,-0.008575439453125,-348.0
1756899054.0779715,-0.008575439453125,-359.0
1756899054.078424,-0.008575439453125,-400.0
1756899054.0786285,-0.008575439453125,-426.0
1756899054.078824,-0.008575439453125,-427.0
1756899054.0811331,-0.008575439453125,-423.0
1756899054.0829976,-0.008575439453125,-438.0
1756899054.0848134,-0.008575439453125,-470.0
1756899054.0869284,-0.008575439453125,-500.0
1756899054.088741,-0.008575439453125,-511.0
1756899054.0910249,-0.008575439453125,-503.0
1756899054.093785,-0.008575439453125,-487.0
1756899054.0946703,-0.008575439453125,-469.0
1756899054.0966353,-0.008575439453125,-445.0
1756899054.0985625,-0.2340087890625,-445.0
1756899054.098862,-0.2340087890625,-415.0
1756899054.1006145,-0.2340087890625,-398.0
1756899054.102579,-0.2340087890625,-410.0
1756899054.1045396,-0.2340087890625,-445.0
1756899054.1064258,-0.2340087890625,-476.0
1756899054.1083522,-0.2340087890625,-481.0
1756899054.1108022,-0.2340087890625,-458.0
1756899054.1140492,-0.2340087890625,-432.0
1756899054.1143088,-0.2340087890625,-431.0
1756899054.116241,-0.2340087890625,-458.0
1756899054.118264,-0.2340087890625,-495.0
1756899054.1202135,-0.2340087890625,-507.0
1756899054.123005,-0.2340087890625,-477.0
1756899054.1240847,-0.2340087890625,-426.0
1756899054.1261134,-0.2340087890625,-391.0
1756899054.1286428,-0.2340087890625,-408.0
1756899054.1301413,-0.2340087890625,-462.0
1756899054.1320925,-0.2340087890625,-505.0
1756899054.1340752,-0.2340087890625,-487.0
1756899054.1361074,-0.2340087890625,-409.0
1756899054.137961,-0.2340087890625,-332.0
1756899054.141713,-0.2340087890625,-327.0
1756899054.1419456,-0.2340087890625,-409.0
1756899054.1444123,-0.2340087890625,-514.0
1756899054.1458135,-0.2340087890625,-557.0
1756899054.1458871,-0.42724609375,-557.0
1756899054.1478176,-0.42724609375,-518.0
1756899054.1496756,-0.42724609375,-468.0
1756899054.1517704,-0.42724609375,-497.0
1756899054.1538234,-0.42724609375,-613.0
1756899054.15726,-0.42724609375,-724.0
1756899054.1575,-0.42724609375,-731.0
1756899054.1598203,-0.42724609375,-634.0
1756899054.1615865,-0.42724609375,-531.0
1756899054.1635132,-0.42724609375,-511.0
1756899054.1654012,-0.42724609375,-569.0
1756899054.1681743,-0.42724609375,-618.0
1756899054.1703432,-0.42724609375,-596.0
1756899054.171312,-0.42724609375,-540.0
1756899054.1732838,-0.42724609375,-534.0
1756899054.1750736,-0.51416015625,-534.0
1756899054.1752532,-0.51416015625,-619.0
1756899054.1773024,-0.51416015625,-732.0
1756899054.1792796,-0.51416015625,-771.0
1756899054.1811445,-0.51416015625,-700.0
1756899054.1846669,-0.51416015625,-600.0
1756899054.1850429,-0.51416015625,-589.0
1756899054.1870768,-0.51416015625,-685.0
1756899054.188981,-0.51416015625,-784.0
1756899054.1910846,-0.51416015625,-771.0
1756899054.1929557,-0.51416015625,-655.0
1756899054.1960917,-0.51416015625,-558.0
1756899054.1969123,-0.51416015625,-588.0
1756899054.2045953,-0.51416015625,-721.0
1756899054.2060318,-0.51416015625,-819.0
1756899054.2062705,-0.51416015625,-790.0
1756899054.207266,-0.51416015625,-673.0
1756899054.2075727,-0.51416015625,-586.0
1756899054.2086506,-0.51416015625,-600.0
1756899054.2109036,-0.51416015625,-671.0
1756899054.2130556,-0.51416015625,-707.0
1756899054.214561,-0.51416015625,-658.0
1756899054.215882,-0.666015625,-658.0
1756899054.2169273,-0.666015625,-565.0
1756899054.2185233,-0.666015625,-509.0
1756899054.2204883,-0.666015625,-532.0
1756899054.2224462,-0.666015625,-600.0
1756899054.2254488,-0.666015625,-630.0
1756899054.226402,-0.666015625,-575.0
1756899054.2283409,-0.666015625,-478.0
1756899054.2312407,-0.666015625,-432.0
1756899054.2335248,-0.666015625,-479.0
1756899054.2342691,-0.666015625,-577.0
1756899054.236214,-0.666015625,-632.0
1756899054.2382414,-0.666015625,-608.0
1756899054.2401547,-0.666015625,-557.0
1756899054.2421308,-0.666015625,-552.0
1756899054.2442522,-0.666015625,-606.0
1756899054.246026,-0.666015625,-674.0
1756899054.2480323,-0.666015625,-702.0
1756899054.2499623,-0.666015625,-671.0
1756899054.2529469,-0.666015625,-609.0
1756899054.2539163,-0.666015625,-549.0
1756899054.2570467,-0.666015625,-522.0
1756899054.257076,-0.80810546875,-522.0
1756899054.257864,-0.80810546875,-542.0
1756899054.2598248,-0.80810546875,-595.0
1756899054.2617707,-0.80810546875,-633.0
1756899054.263923,-0.80810546875,-611.0
1756899054.2657044,-0.80810546875,-534.0
1756899054.267695,-0.80810546875,-454.0
1756899054.2698462,-0.80810546875,-420.0
1756899054.2715716,-0.80810546875,-422.0
1756899054.27455,-0.80810546875,-411.0
1756899054.278902,-0.80810546875,-365.0
1756899054.279171,-0.80810546875,-318.0
1756899054.2796853,-0.80810546875,-327.0
1756899054.2817278,-0.80810546875,-407.0
1756899054.2835624,-0.80810546875,-509.0
1756899054.2854548,-0.80810546875,-576.0
1756899054.289079,-0.80810546875,-590.0
1756899054.2892902,-0.80810546875,-582.0
1756899054.2913752,-0.80810546875,-590.0
1756899054.2933228,-0.80810546875,-622.0
1756899054.295158,-0.80810546875,-640.0
1756899054.2959387,-0.9521484375,-640.0
1756899054.2972143,-0.9521484375,-611.0
1756899054.3062575,-0.9521484375,-535.0
1756899054.3064756,-0.9521484375,-459.0
1756899054.3066726,-0.9521484375,-432.0
1756899054.3068671,-0.9521484375,-465.0
1756899054.3070784,-0.9521484375,-514.0
1756899054.3132672,-0.9521484375,-533.0
1756899054.3135047,-0.9521484375,-519.0
1756899054.313702,-0.9521484375,-509.0
1756899054.314936,-0.9521484375,-525.0
1756899054.3168545,-0.9521484375,-544.0
1756899054.3190343,-0.9521484375,-515.0
1756899054.3208039,-0.9521484375,-434.0
1756899054.3228986,-0.9521484375,-362.0
1756899054.3248012,-0.9521484375,-360.0
1756899054.3269327,-0.9521484375,-414.0
1756899054.3286695,-0.9521484375,-447.0
1756899054.3317711,-0.9521484375,-413.0
1756899054.332504,-0.9521484375,-360.0
1756899054.3351345,-0.9560546875,-360.0
1756899054.3376544,-0.9560546875,-374.0
1756899054.3378973,-0.9560546875,-480.0
1756899054.3387527,-0.9560546875,-596.0
1756899054.3403828,-0.9560546875,-630.0
1756899054.3423872,-0.9560546875,-567.0
1756899054.3449435,-0.9560546875,-477.0
1756899054.3462765,-0.9560546875,-426.0
1756899054.351474,-0.9560546875,-423.0
1756899054.35182,-0.9560546875,-429.0
1756899054.3534539,-0.9560546875,-413.0
1756899054.354143,-0.9560546875,-375.0
1756899054.3573754,-0.9560546875,-339.0
1756899054.3605494,-0.9560546875,-333.0
1756899054.3607783,-0.9560546875,-368.0
1756899054.3625667,-0.9560546875,-429.0
1756899054.3643885,-0.9560546875,-482.0
1756899054.3675742,-0.9560546875,-495.0
1756899054.3678913,-0.9560546875,-481.0
1756899054.3699274,-0.9560546875,-485.0
1756899054.3718858,-0.9560546875,-523.0
1756899054.3738,-0.9560546875,-552.0
1756899054.3759434,-0.9560546875,-510.0
1756899054.3783727,-0.9560546875,-408.0
1756899054.381623,-0.9560546875,-340.0
1756899054.3818398,-0.9560546875,-379.0
1756899054.383104,-0.490234375,-379.0
1756899054.3835812,-0.490234375,-477.0
1756899054.385575,-0.490234375,-504.0
1756899054.3876212,-0.490234375,-407.0
1756899054.398107,-0.490234375,-299.0
1756899054.3983831,-0.490234375,-326.0
1756899054.3985827,-0.490234375,-471.0
1756899054.3987842,-0.490234375,-563.0
1756899054.398981,-0.490234375,-476.0
1756899054.3998086,-0.490234375,-290.0
1756899054.40137,-0.490234375,-214.0
1756899054.4034944,-0.490234375,-324.0
1756899054.4063463,-0.490234375,-477.0
1756899054.4095116,-0.490234375,-500.0
1756899054.409853,-0.490234375,-401.0
1756899054.4112647,-0.490234375,-353.0
1756899054.4131773,-0.490234375,-463.0
1756899054.4151528,-0.490234375,-637.0
1756899054.416492,0.72509765625,-637.0
1756899054.4171555,0.72509765625,-708.0
1756899054.4190686,0.72509765625,-643.0
1756899054.4266272,0.72509765625,-560.0
1756899054.4282897,0.72509765625,-564.0
1756899054.42861,0.72509765625,-614.0
1756899054.4288142,0.72509765625,-596.0
1756899054.4290125,0.72509765625,-485.0
1756899054.4310193,0.72509765625,-383.0
1756899054.4330118,0.72509765625,-382.0
1756899054.4348195,0.72509765625,-457.0
1756899054.4392035,0.72509765625,-499.0
1756899054.4400475,0.72509765625,-460.0
1756899054.440635,0.72509765625,-405.0
1756899054.4468076,0.72509765625,-434.0
1756899054.4471366,0.72509765625,-557.0
1756899054.4601634,1.275390625,-557.0
1756899054.4686093,1.275390625,-675.0
1756899054.4688377,1.275390625,-682.0
1756899054.4690359,1.275390625,-576.0
1756899054.4692333,1.275390625,-474.0
1756899054.4695556,1.275390625,-481.0
1756899054.4698102,1.275390625,-568.0
1756899054.4709437,1.275390625,-603.0
1756899054.4714816,1.275390625,-511.0
1756899054.4730349,1.275390625,-360.0
1756899054.4734948,1.275390625,-295.0
1756899054.4747002,1.275390625,-365.0
1756899054.4773483,1.275390625,-455.0
1756899054.4794698,1.275390625,-443.0
1756899054.4799538,1.275390625,-352.0
1756899054.4803004,1.275390625,-306.0
1756899054.4828658,1.275390625,-357.0
1756899054.4833462,1.275390625,-417.0
1756899054.4840257,1.275390625,-384.0
1756899054.4844792,1.275390625,-289.0
1756899054.4849484,1.275390625,-261.0
1756899054.4909422,1.275390625,-349.0
1756899054.4913037,1.275390625,-448.0
1756899054.4943917,1.275390625,-442.0
1756899054.4972174,1.275390625,-364.0
1756899054.498165,1.275390625,-349.0
1756899054.4983697,1.275390625,-448.0
1756899054.4985678,1.275390625,-556.0
1756899054.4996173,1.431640625,-556.0
1756899054.5011404,1.431640625,-555.0
1756899054.5017693,1.431640625,-466.0
1756899054.5035498,1.431640625,-406.0
1756899054.5056274,1.431640625,-437.0
1756899054.5075533,1.431640625,-486.0
1756899054.512852,1.431640625,-476.0
1756899054.513081,1.431640625,-416.0
1756899054.5134718,1.431640625,-378.0
1756899054.5154104,1.431640625,-388.0
1756899054.5173934,1.431640625,-402.0
1756899054.51934,1.431640625,-400.0
1756899054.5321958,1.431640625,-408.0
1756899054.5326571,1.431640625,-443.0
1756899054.5328786,1.431640625,-456.0
1756899054.535209,1.431640625,-395.0
1756899054.537417,1.431640625,-301.0
1756899054.5381126,1.431640625,-277.0
1756899054.5390975,1.431640625,-356.0
1756899054.5394495,1.431640625,-456.0
1756899054.540066,1.431640625,-468.0
1756899054.5402684,1.431640625,-395.0
1756899054.5412982,1.431640625,-348.0
1756899054.5429392,1.431640625,-398.0
1756899054.5449483,1.431640625,-496.0
1756899054.546947,1.431640625,-545.0
1756899054.5488796,1.431640625,-516.0
1756899054.5536406,1.29296875,-516.0
1756899054.5547419,1.29296875,-472.0
1756899054.554994,1.29296875,-486.0
1756899054.555194,1.29296875,-559.0
1756899054.5754302,0.9931640625,-559.0
1756899054.5759,0.9931640625,-647.0
1756899054.5764296,0.9931640625,-717.0
1756899054.577731,0.9931640625,-773.0
1756899054.580848,0.9931640625,-820.0
1756899054.581168,0.9931640625,-864.0
1756899054.5815947,0.9931640625,-922.0
1756899054.5830774,0.9931640625,-1024.0
1756899054.5832822,0.9931640625,-1167.0
1756899054.5834813,0.9931640625,-1296.0
1756899054.5836804,0.9931640625,-1348.0
1756899054.5839055,0.9931640625,-1326.0
1756899054.584281,0.9931640625,-1306.0
1756899054.5844822,0.9931640625,-1369.0
1756899054.5846796,0.9931640625,-1482.0
1756899054.5848768,0.9931640625,-1542.0
1756899054.5862243,0.9931640625,-1461.0
1756899054.588166,0.9931640625,-1260.0
1756899054.59012,0.9931640625,-1048.0
1756899054.5936968,0.9931640625,-916.0
1756899054.5941179,0.9931640625,-851.0
1756899054.5983808,0.9931640625,-770.0
1756899054.598762,0.9931640625,-615.0
1756899054.6000164,0.9931640625,-421.0
1756899054.6021812,0.9931640625,-283.0
1756899054.60412,0.9931640625,-253.0
1756899054.6059425,0.9931640625,-290.0
1756899054.6078756,0.9931640625,-310.0
1756899054.6098292,0.9931640625,-288.0
1756899054.6122992,0.9931640625,-271.0
1756899054.6159782,0.9931640625,-312.0
1756899054.617242,0.58154296875,-312.0
1756899054.6181073,0.58154296875,-394.0
1756899054.6185343,0.58154296875,-445.0
1756899054.6196327,0.58154296875,-425.0
1756899054.6220648,0.58154296875,-377.0
1756899054.6235766,0.58154296875,-377.0
1756899054.6255198,0.58154296875,-429.0
1756899054.627602,0.58154296875,-466.0
1756899054.6298082,0.58154296875,-424.0
1756899054.6341949,0.58154296875,-334.0
1756899054.6344464,0.58154296875,-291.0
1756899054.6353953,0.58154296875,-335.0
1756899054.6382058,0.58154296875,-407.0
1756899054.639361,0.58154296875,-421.0
1756899054.6502416,0.58154296875,-362.0
1756899054.651144,0.58154296875,-303.0
1756899054.6514423,0.58154296875,-314.0
1756899054.651647,0.58154296875,-374.0
1756899054.651844,0.58154296875,-411.0
1756899054.6520405,0.58154296875,-384.0
1756899054.6531951,0.58154296875,-326.0
1756899054.6550243,0.58154296875,-290.0
1756899054.6570053,0.58154296875,-284.0
1756899054.6586494,0.25390625,-284.0
1756899054.658931,0.25390625,-281.0
1756899054.6608927,0.25390625,-265.0
1756899054.6630328,0.25390625,-262.0
1756899054.6654708,0.25390625,-300.0
1756899054.6668665,0.25390625,-365.0
1756899054.668894,0.25390625,-411.0
1756899054.6715858,0.25390625,-412.0
1756899054.6730297,0.25390625,-395.0
1756899054.6750042,0.25390625,-400.0
1756899054.6766903,0.25390625,-443.0
1756899054.6791816,0.25390625,-482.0
1756899054.680628,0.25390625,-461.0
1756899054.6826055,0.25390625,-376.0
1756899054.6845362,0.25390625,-291.0
1756899054.6865008,0.25390625,-273.0
1756899054.688449,0.25390625,-327.0
1756899054.6904166,0.25390625,-388.0
1756899054.6923618,0.25390625,-395.0
1756899054.6947992,0.25390625,-360.0
1756899054.6975665,0.25390625,-346.0
1756899054.69826,0.25390625,-386.0
1756899054.6982977,0.051971435546875,-386.0
1756899054.7017612,0.051971435546875,-437.0
1756899054.7025275,0.051971435546875,-433.0
1756899054.7041562,0.051971435546875,-364.0
1756899054.7061288,0.051971435546875,-293.0
1756899054.7081335,0.051971435546875,-280.0
1756899054.7100797,0.051971435546875,-308.0
1756899054.7128685,0.051971435546875,-321.0
1756899054.7160447,0.051971435546875,-294.0
1756899054.716256,0.051971435546875,-265.0
1756899054.7179341,0.051971435546875,-285.0
1756899054.7198918,0.051971435546875,-355.0
1756899054.7218597,0.051971435546875,-419.0
1756899054.7265942,0.051971435546875,-438.0
1756899054.7269871,0.051971435546875,-428.0
1756899054.7355871,0.051971435546875,-426.0
1756899054.7375286,-0.09173583984375,-426.0
1756899054.7384853,-0.09173583984375,-444.0
1756899054.7387931,-0.09173583984375,-443.0
1756899054.7391746,-0.09173583984375,-393.0
1756899054.7414076,-0.09173583984375,-322.0
1756899054.7417889,-0.09173583984375,-292.0
1756899054.7427335,-0.09173583984375,-334.0
1756899054.7429357,-0.09173583984375,-401.0
1756899054.7438095,-0.09173583984375,-421.0
1756899054.745462,-0.09173583984375,-385.0
1756899054.7474215,-0.09173583984375,-359.0
1756899054.7493773,-0.09173583984375,-402.0
1756899054.7540665,-0.09173583984375,-488.0
1756899054.756585,-0.09173583984375,-531.0
1756899054.7568169,-0.09173583984375,-489.0
1756899054.757727,-0.09173583984375,-407.0
1756899054.7592552,-0.09173583984375,-365.0
1756899054.761195,-0.09173583984375,-378.0
1756899054.763166,-0.09173583984375,-393.0
1756899054.7651923,-0.09173583984375,-370.0
1756899054.7676375,-0.09173583984375,-338.0
1756899054.7690494,-0.09173583984375,-348.0
1756899054.7710137,-0.09173583984375,-396.0
1756899054.7729645,-0.09173583984375,-421.0
1756899054.7749436,-0.09173583984375,-394.0
1756899054.7769105,-0.09173583984375,-372.0
1756899054.778364,-0.34716796875,-372.0
1756899054.7788765,-0.34716796875,-413.0
1756899054.780836,-0.34716796875,-502.0
1756899054.7828016,-0.34716796875,-550.0
1756899054.7847621,-0.34716796875,-494.0
1756899054.7868755,-0.34716796875,-390.0
1756899054.7886784,-0.34716796875,-348.0
1756899054.7909193,-0.34716796875,-398.0
1756899054.793131,-0.34716796875,-460.0
1756899054.7951202,-0.34716796875,-458.0
1756899054.7974153,-0.34716796875,-407.0
1756899054.7988806,-0.34716796875,-375.0
1756899054.8006663,-0.34716796875,-395.0
1756899054.803296,-0.34716796875,-427.0
1756899054.804462,-0.34716796875,-432.0
1756899054.812663,-0.34716796875,-437.0
1756899054.8127704,-0.34716796875,-479.0
1756899054.8132136,-0.34716796875,-529.0
1756899054.8132892,-0.34716796875,-519.0
1756899054.8141224,-0.34716796875,-439.0
1756899054.8161802,-0.34716796875,-372.0
1756899054.8175778,-0.55712890625,-372.0
1756899054.8181593,-0.55712890625,-392.0
1756899054.8200047,-0.55712890625,-462.0
1756899054.8233972,-0.55712890625,-469.0
1756899054.823915,-0.55712890625,-373.0
1756899054.8258996,-0.55712890625,-270.0
1756899054.827875,-0.55712890625,-280.0
1756899054.829915,-0.55712890625,-405.0
1756899054.8334732,-0.55712890625,-524.0
1756899054.8342474,-0.55712890625,-540.0
1756899054.837422,-0.55712890625,-480.0
1756899054.8377264,-0.55712890625,-442.0
1756899054.864267,-0.703125,-442.0
1756899054.8659956,-0.703125,-466.0
1756899054.8670168,-0.703125,-508.0
1756899054.8680058,-0.703125,-512.0
1756899054.8680818,-0.703125,-479.0
1756899054.8684838,-0.703125,-453.0
1756899054.868572,-0.703125,-452.0
1756899054.868621,-0.703125,-462.0
1756899054.8686817,-0.703125,-480.0
1756899054.86873,-0.703125,-511.0
1756899054.8687809,-0.703125,-561.0
1756899054.868828,-0.703125,-599.0
1756899054.8688736,-0.703125,-594.0
1756899054.8689954,-0.703125,-563.0
1756899054.8690584,-0.703125,-554.0
1756899054.8691037,-0.703125,-580.0
1756899054.86915,-0.703125,-605.0
1756899054.8961425,-0.703125,-597.0
1756899054.8971047,-0.703125,-565.0
1756899054.8971741,-0.703125,-549.0
1756899054.8974402,-0.703125,-569.0
1756899054.8975465,-0.703125,-599.0
1756899054.8981109,-0.703125,-614.0
1756899054.8981864,-0.703125,-617.0
1756899054.8984206,-0.703125,-623.0
1756899054.8985562,-0.703125,-627.0
1756899054.8987238,-0.703125,-609.0
1756899054.8988366,-0.703125,-566.0
1756899054.8988864,-0.703125,-525.0
1756899054.898934,-0.703125,-520.0
1756899054.8989837,-0.703125,-545.0
1756899054.8990355,-0.703125,-555.0
1756899054.8990943,-0.84912109375,-555.0
1756899054.9006991,-0.84912109375,-522.0
1756899054.9034324,-0.84912109375,-478.0
1756899054.905255,-0.84912109375,-485.0
1756899054.9064925,-0.84912109375,-575.0
1756899054.9089017,-0.84912109375,-708.0
1756899054.9105625,-0.84912109375,-783.0
1756899054.9140396,-0.84912109375,-737.0
1756899054.9147162,-0.84912109375,-610.0
1756899054.916303,-0.84912109375,-510.0
1756899054.9183116,-0.84912109375,-519.0
1756899054.9202797,-0.84912109375,-605.0
1756899054.9222581,-0.84912109375,-666.0
1756899054.9241998,-0.84912109375,-630.0
1756899054.9261518,-0.84912109375,-522.0
1756899054.9281397,-0.84912109375,-436.0
1756899054.930187,-0.84912109375,-439.0
1756899054.9323347,-0.84912109375,-511.0
1756899054.9340982,-0.84912109375,-577.0
1756899054.9360454,-0.84912109375,-579.0
1756899054.9378037,-0.95068359375,-579.0
1756899054.9379735,-0.95068359375,-527.0
1756899054.939971,-0.95068359375,-488.0
1756899054.9419625,-0.95068359375,-511.0
1756899054.9438417,-0.95068359375,-575.0
1756899054.945904,-0.95068359375,-614.0
1756899054.9477608,-0.95068359375,-593.0
1756899054.9498532,-0.95068359375,-557.0
1756899054.951754,-0.95068359375,-571.0
1756899054.9603848,-0.95068359375,-632.0
1756899054.9606125,-0.95068359375,-666.0
1756899054.9606624,-0.95068359375,-615.0
1756899054.9607093,-0.95068359375,-527.0
1756899054.9617138,-0.95068359375,-498.0
1756899054.9635267,-0.95068359375,-553.0
1756899054.9655902,-0.95068359375,-608.0
1756899054.96751,-0.95068359375,-571.0
1756899054.969382,-0.95068359375,-463.0
1756899054.9718688,-0.95068359375,-395.0
1756899054.973491,-0.95068359375,-432.0
1756899054.976167,-0.95068359375,-521.0
1756899054.9807506,-1.04296875,-521.0
1756899054.9917092,-1.04296875,-562.0
1756899054.9921322,-1.04296875,-527.0
1756899054.9925134,-1.04296875,-475.0
1756899054.9927633,-1.04296875,-477.0
1756899054.9930134,-1.04296875,-527.0
1756899054.9931462,-1.04296875,-554.0
1756899054.9932,-1.04296875,-518.0
1756899054.993253,-1.04296875,-438.0
1756899054.9933054,-1.04296875,-373.0
1756899054.994949,-1.04296875,-353.0
1756899054.9969056,-1.04296875,-366.0
1756899055.0068429,-1.04296875,-376.0
1756899055.0074704,-1.04296875,-364.0
1756899055.0078855,-1.04296875,-345.0
1756899055.0081615,-1.04296875,-344.0
1756899055.008589,-1.04296875,-369.0
1756899055.009259,-1.04296875,-392.0
1756899055.0115714,-1.04296875,-388.0
1756899055.012764,-1.04296875,-365.0
1756899055.0146704,-1.04296875,-372.0
1756899055.0166106,-1.04296875,-447.0
1756899055.0190773,-1.1201171875,-447.0
1756899055.0191612,-1.1201171875,-549.0
1756899055.020535,-1.1201171875,-584.0
1756899055.0226731,-1.1201171875,-505.0
1756899055.0246346,-1.1201171875,-374.0
1756899055.0265558,-1.1201171875,-315.0
1756899055.0286698,-1.1201171875,-368.0
1756899055.0304196,-1.1201171875,-447.0
1756899055.0356119,-1.1201171875,-428.0
1756899055.0359988,-1.1201171875,-308.0
1756899055.0484238,-1.1201171875,-205.0
1756899055.0500193,-1.1201171875,-227.0
1756899055.0523262,-1.1201171875,-344.0
1756899055.0531762,-1.1201171875,-434.0
1756899055.0534859,-1.1201171875,-425.0
1756899055.0536487,-1.1201171875,-369.0
1756899055.0538967,-1.1201171875,-354.0
1756899055.0539405,-1.1201171875,-405.0
1756899055.0539815,-1.1201171875,-470.0
1756899055.054023,-1.1201171875,-497.0
1756899055.0562685,-1.1201171875,-475.0
1756899055.0579865,-1.1201171875,-430.0
1756899055.0598886,-1.1201171875,-392.0
1756899055.061871,-1.1201171875,-375.0
1756899055.0638123,-1.1201171875,-383.0
1756899055.0648675,-1.0615234375,-383.0
1756899055.0657728,-1.0615234375,-386.0
1756899055.0687957,-1.0615234375,-351.0
1756899055.069716,-1.0615234375,-275.0
1756899055.0716612,-1.0615234375,-221.0
1756899055.0746346,-1.0615234375,-259.0
1756899055.0851474,-1.0615234375,-367.0
1756899055.0852377,-1.0615234375,-439.0
1756899055.0853074,-1.0615234375,-400.0
1756899055.0853596,-1.0615234375,-309.0
1756899055.0854115,-1.0615234375,-286.0
1756899055.0854633,-1.0615234375,-377.0
1756899055.087812,-1.0615234375,-501.0
1756899055.0896454,-1.0615234375,-541.0
1756899055.091643,-1.0615234375,-472.0
1756899055.0933337,-1.0615234375,-372.0
1756899055.09495,-0.81689453125,-372.0
1756899055.0964255,-0.81689453125,-333.0
1756899055.0974813,-0.81689453125,-373.0
1756899055.0995898,-0.81689453125,-442.0
1756899055.1012628,-0.81689453125,-470.0
1756899055.1031594,-0.81689453125,-431.0
1756899055.1051068,-0.81689453125,-370.0
1756899055.1070411,-0.81689453125,-355.0
1756899055.1090524,-0.81689453125,-410.0
1756899055.112209,-0.81689453125,-482.0
1756899055.1130052,-0.81689453125,-495.0
1756899055.1173642,-0.81689453125,-442.0
1756899055.117476,-0.81689453125,-391.0
1756899055.1188436,-0.81689453125,-408.0
1756899055.1209989,-0.81689453125,-473.0
1756899055.123762,-0.81689453125,-511.0
1756899055.124994,-0.81689453125,-487.0
1756899055.1267235,-0.81689453125,-451.0
1756899055.1286829,-0.81689453125,-474.0
1756899055.130661,-0.81689453125,-547.0
1756899055.1326995,-0.81689453125,-606.0
1756899055.134815,-0.81689453125,-608.0
1756899055.1366022,-0.81689453125,-578.0
1756899055.138469,-0.81689453125,-562.0
1756899055.1399229,-0.19970703125,-562.0
1756899055.140481,-0.19970703125,-565.0
1756899055.142425,-0.19970703125,-564.0
1756899055.1445181,-0.19970703125,-542.0
1756899055.1463673,-0.19970703125,-513.0
1756899055.1484966,-0.19970703125,-509.0
1756899055.1502893,-0.19970703125,-537.0
1756899055.1523936,-0.19970703125,-572.0
1756899055.154194,-0.19970703125,-571.0
1756899055.1561444,-0.19970703125,-521.0
1756899055.1583478,-0.19970703125,-463.0
1756899055.1602492,-0.19970703125,-444.0
1756899055.1623726,-0.19970703125,-474.0
1756899055.1670141,-0.19970703125,-501.0
1756899055.1672034,-0.19970703125,-461.0
1756899055.1681414,-0.19970703125,-366.0
1756899055.1701405,-0.19970703125,-294.0
1756899055.172086,-0.19970703125,-307.0
1756899055.1740305,-0.19970703125,-375.0
1756899055.175867,-0.19970703125,-413.0
1756899055.1782124,0.49609375,-413.0
1756899055.179109,0.49609375,-376.0
1756899055.1798766,0.49609375,-315.0
1756899055.181717,0.49609375,-307.0
1756899055.183753,0.49609375,-367.0
1756899055.185676,0.49609375,-428.0
1756899055.187646,0.49609375,-427.0
1756899055.190054,0.49609375,-364.0
1756899055.1917012,0.49609375,-296.0
1756899055.1935925,0.49609375,-293.0
1756899055.1955836,0.49609375,-365.0
1756899055.1977391,0.49609375,-449.0
1756899055.199488,0.49609375,-461.0
1756899055.2015197,0.49609375,-378.0
1756899055.2036817,0.49609375,-285.0
1756899055.2123811,0.49609375,-284.0
1756899055.212539,0.49609375,-380.0
1756899055.21262,0.49609375,-468.0
1756899055.2127557,0.49609375,-452.0
1756899055.2132432,0.49609375,-355.0
1756899055.2152154,0.49609375,-292.0
1756899055.2171648,0.49609375,-328.0
1756899055.2190614,0.49609375,-404.0
1756899055.2200003,0.91162109375,-404.0
1756899055.2214508,0.91162109375,-430.0
1756899055.2238839,0.91162109375,-394.0
1756899055.2250173,0.91162109375,-361.0
1756899055.2272124,0.91162109375,-370.0
1756899055.2298887,0.91162109375,-397.0
1756899055.2309077,0.91162109375,-396.0
1756899055.2329974,0.91162109375,-379.0
1756899055.2348154,0.91162109375,-388.0
1756899055.2379062,0.91162109375,-425.0
1756899055.239759,0.91162109375,-446.0
1756899055.2407928,0.91162109375,-425.0
1756899055.2427878,0.91162109375,-397.0
1756899055.2449071,0.91162109375,-415.0
1756899055.2466717,0.91162109375,-482.0
1756899055.2486103,0.91162109375,-553.0
1756899055.2520745,0.91162109375,-589.0
1756899055.2527795,0.91162109375,-597.0
1756899055.2546475,0.91162109375,-622.0
1756899055.255509,1.130859375,-622.0
1756899055.2564602,1.130859375,-693.0
1756899055.2586405,1.130859375,-799.0
1756899055.260614,1.130859375,-914.0
1756899055.263392,1.130859375,-1019.0
1756899055.2644656,1.130859375,-1126.0
1756899055.2664757,1.130859375,-1252.0
1756899055.2683356,1.130859375,-1385.0
1756899055.2703357,1.130859375,-1481.0
1756899055.2723575,1.130859375,-1506.0
1756899055.2767637,1.130859375,-1480.0
1756899055.2768447,1.130859375,-1454.0
1756899055.2781951,1.130859375,-1444.0
1756899055.2800424,1.130859375,-1396.0
1756899055.2824764,1.130859375,-1242.0
1756899055.2841232,1.130859375,-1005.0
1756899055.2859142,1.130859375,-794.0
1756899055.288545,1.130859375,-686.0
1756899055.2898755,1.130859375,-645.0
1756899055.2918003,1.130859375,-582.0
1756899055.2937825,1.130859375,-463.0
1756899055.2958207,1.130859375,-351.0
1756899055.297807,1.130859375,-319.0
1756899055.2997518,1.130859375,-354.0
1756899055.3019857,1.130859375,-387.0
1756899055.3036973,1.130859375,-380.0
1756899055.3057816,1.130859375,-367.0
1756899055.3074658,1.0537109375,-367.0
1756899055.3077195,1.0537109375,-385.0
1756899055.3108394,1.0537109375,-419.0
1756899055.3115897,1.0537109375,-419.0
1756899055.3135633,1.0537109375,-374.0
1756899055.3156788,1.0537109375,-334.0
1756899055.3202016,1.0537109375,-353.0
1756899055.32046,1.0537109375,-412.0
1756899055.3214345,1.0537109375,-438.0
1756899055.324323,1.0537109375,-396.0
1756899055.3262694,1.0537109375,-334.0
1756899055.3277097,1.0537109375,-314.0
1756899055.3294053,1.0537109375,-331.0
1756899055.3339186,1.0537109375,-315.0
1756899055.3348749,1.0537109375,-231.0
1756899055.3353598,1.0537109375,-152.0
1756899055.337966,1.0537109375,-164.0
1756899055.3391254,1.0537109375,-252.0
1756899055.341148,1.0537109375,-301.0
1756899055.343065,1.0537109375,-264.0
1756899055.3450692,1.0537109375,-224.0
1756899055.3490248,1.0537109375,-297.0
1756899055.3492317,1.0537109375,-453.0
1756899055.3529334,1.0537109375,-547.0
1756899055.353161,1.0537109375,-491.0
1756899055.3546789,0.59033203125,-491.0
1756899055.3554637,0.59033203125,-379.0
1756899055.3568692,0.59033203125,-358.0
1756899055.3707328,0.59033203125,-447.0
1756899055.3709044,0.59033203125,-518.0
1756899055.3709898,0.59033203125,-473.0
1756899055.371214,0.59033203125,-363.0
1756899055.3712733,0.59033203125,-315.0
1756899055.371328,0.59033203125,-368.0
1756899055.371388,0.59033203125,-436.0
1756899055.3724482,0.59033203125,-439.0
1756899055.374923,0.59033203125,-392.0
1756899055.376383,0.59033203125,-359.0
1756899055.3783693,0.59033203125,-362.0
1756899055.3802545,0.59033203125,-378.0
1756899055.3822324,0.59033203125,-402.0
1756899055.3842597,0.59033203125,-453.0
1756899055.3865957,0.59033203125,-515.0
1756899055.3901021,0.59033203125,-528.0
1756899055.3902073,0.59033203125,-455.0
1756899055.3922431,0.59033203125,-350.0
1756899055.395831,0.59033203125,-322.0
1756899055.3961232,0.59033203125,-406.0
1756899055.3988557,0.59033203125,-514.0
1756899055.4000382,0.59033203125,-528.0
1756899055.4072528,0.59033203125,-426.0
1756899055.407457,0.59033203125,-317.0
1756899055.4091275,0.29931640625,-317.0
1756899055.4138894,0.29931640625,-315.0
1756899055.4143167,0.29931640625,-419.0
1756899055.4146633,0.29931640625,-529.0
1756899055.4147844,0.29931640625,-562.0
1756899055.414838,0.29931640625,-522.0
1756899055.4158373,0.29931640625,-472.0
1756899055.4177463,0.29931640625,-446.0
1756899055.4195933,0.29931640625,-428.0
1756899055.4216058,0.29931640625,-400.0
1756899055.4236202,0.29931640625,-383.0
1756899055.4255617,0.29931640625,-412.0
1756899055.4275928,0.29931640625,-475.0
1756899055.4296017,0.29931640625,-515.0
1756899055.4315484,0.29931640625,-501.0
1756899055.4334514,0.29931640625,-468.0
1756899055.4356544,0.29931640625,-485.0
1756899055.4375436,0.29931640625,-573.0
1756899055.4397173,0.29931640625,-677.0
1756899055.4413316,0.29931640625,-718.0
1756899055.4432876,0.29931640625,-673.0
1756899055.4453287,0.29931640625,-588.0
1756899055.4473403,0.29931640625,-529.0
1756899055.4493833,0.29931640625,-529.0
1756899055.4518766,0.29931640625,-554.0
1756899055.45307,0.29931640625,-546.0
1756899055.4555085,0.29931640625,-489.0
1756899055.4569628,0.29931640625,-422.0
1756899055.4597096,-0.006927490234375,-422.0
1756899055.4604619,-0.006927490234375,-403.0
1756899055.4643617,-0.006927490234375,-437.0
1756899055.4647257,-0.006927490234375,-469.0
1756899055.4651372,-0.006927490234375,-451.0
1756899055.4668062,-0.006927490234375,-405.0
1756899055.4689407,-0.006927490234375,-409.0
1756899055.4707592,-0.006927490234375,-490.0
1756899055.4736156,-0.006927490234375,-582.0
1756899055.4763813,-0.006927490234375,-587.0
1756899055.4771016,-0.006927490234375,-493.0
1756899055.482372,-0.006927490234375,-393.0
1756899055.4830608,-0.006927490234375,-377.0
1756899055.483787,-0.006927490234375,-436.0
1756899055.4844692,-0.006927490234375,-473.0
1756899055.4875987,-0.006927490234375,-436.0
1756899055.4884286,-0.006927490234375,-370.0
1756899055.4907982,-0.006927490234375,-355.0
1756899055.4926875,-0.006927490234375,-407.0
1756899055.4943583,-0.006927490234375,-476.0
1756899055.4963639,-0.006927490234375,-523.0
1756899055.498246,-0.006927490234375,-560.0
1756899055.500181,-0.006927490234375,-609.0
1756899055.5021517,-0.006927490234375,-646.0
1756899055.5041094,-0.006927490234375,-616.0
1756899055.5060866,-0.006927490234375,-522.0
1756899055.508236,-0.006927490234375,-443.0
1756899055.51042,-0.21484375,-443.0
1756899055.5115592,-0.21484375,-446.0
1756899055.5122902,-0.21484375,-507.0
1756899055.5198414,-0.21484375,-522.0
1756899055.5201006,-0.21484375,-431.0
1756899055.5202267,-0.21484375,-305.0
1756899055.520346,-0.21484375,-279.0
1756899055.5219676,-0.21484375,-400.0
1756899055.5238965,-0.21484375,-569.0
1756899055.5258152,-0.21484375,-649.0
1756899055.5277734,-0.21484375,-604.0
1756899055.5299058,-0.21484375,-532.0
1756899055.5316908,-0.21484375,-539.0
1756899055.5336177,-0.21484375,-616.0
1756899055.5370305,-0.21484375,-667.0
1756899055.5375783,-0.21484375,-633.0
1756899055.5395527,-0.21484375,-566.0
1756899055.542636,-0.21484375,-549.0
1756899055.543484,-0.21484375,-586.0
1756899055.5456018,-0.21484375,-598.0
1756899055.5477636,-0.21484375,-549.0
1756899055.550831,-0.21484375,-507.0
1756899055.5529358,-0.21484375,-549.0
1756899055.5553002,-0.21484375,-643.0
1756899055.555556,-0.21484375,-665.0
1756899055.557674,-0.21484375,-572.0
1756899055.559461,-0.21484375,-470.0
1756899055.5616834,-0.21484375,-492.0
1756899055.562797,-0.385986328125,-492.0
1756899055.563265,-0.385986328125,-619.0
1756899055.5653038,-0.385986328125,-697.0
1756899055.5673165,-0.385986328125,-628.0
1756899055.5696754,-0.385986328125,-504.0
1756899055.5711243,-0.385986328125,-489.0
1756899055.57311,-0.385986328125,-607.0
1756899055.5750375,-0.385986328125,-722.0
1756899055.5769973,-0.385986328125,-720.0
1756899055.5794017,-0.385986328125,-640.0
1756899055.5812652,-0.385986328125,-599.0
1756899055.5838492,-0.385986328125,-644.0
1756899055.5848808,-0.385986328125,-704.0
1756899055.5868382,-0.385986328125,-717.0
1756899055.589928,-0.385986328125,-705.0
1756899055.5909014,-0.385986328125,-727.0
1756899055.6069658,-0.53759765625,-727.0
1756899055.6092107,-0.53759765625,-779.0
1756899055.609475,-0.53759765625,-800.0
1756899055.6096756,-0.53759765625,-769.0
1756899055.6099713,-0.53759765625,-730.0
1756899055.61017,-0.53759765625,-732.0
1756899055.6103683,-0.53759765625,-759.0
1756899055.6105955,-0.53759765625,-753.0
1756899055.610794,-0.53759765625,-694.0
1756899055.6112921,-0.53759765625,-619.0
1756899055.6131399,-0.53759765625,-571.0
1756899055.6150296,-0.53759765625,-559.0
1756899055.6166577,-0.53759765625,-568.0
1756899055.617005,-0.53759765625,-596.0
1756899055.623083,-0.53759765625,-640.0
1756899055.6239235,-0.53759765625,-682.0
1756899055.6254227,-0.53759765625,-695.0
1756899055.625651,-0.53759765625,-678.0
1756899055.6290963,-0.53759765625,-656.0
1756899055.629317,-0.53759765625,-657.0
1756899055.6301575,-0.53759765625,-686.0
1756899055.6324792,-0.53759765625,-721.0
1756899055.6341171,-0.53759765625,-731.0
1756899055.6360016,-0.53759765625,-693.0
1756899055.6385732,-0.53759765625,-618.0
1756899055.639927,-0.53759765625,-550.0
1756899055.6420708,-0.53759765625,-543.0
1756899055.6455636,-0.53759765625,-603.0
1756899055.6458175,-0.53759765625,-680.0
1756899055.6479125,-0.53759765625,-715.0
1756899055.6522613,-0.53759765625,-700.0
1756899055.652586,-0.53759765625,-685.0
1756899055.6564398,-0.53759765625,-705.0
1756899055.6566484,-0.53759765625,-739.0
1756899055.657083,-0.6162109375,-739.0
1756899055.6585982,-0.6162109375,-740.0
1756899055.6595922,-0.6162109375,-705.0
1756899055.6619098,-0.6162109375,-684.0
1756899055.6639476,-0.6162109375,-720.0
1756899055.6654906,-0.6162109375,-781.0
1756899055.6674542,-0.6162109375,-800.0
1756899055.6694078,-0.6162109375,-751.0
1756899055.6714518,-0.6162109375,-690.0
1756899055.673706,-0.6162109375,-696.0
1756899055.675558,-0.6162109375,-774.0
1756899055.6773617,-0.6162109375,-854.0
1756899055.679312,-0.6162109375,-862.0
1756899055.6813023,-0.6162109375,-799.0
1756899055.6832244,-0.6162109375,-729.0
1756899055.6851716,-0.6162109375,-720.0
1756899055.687148,-0.6162109375,-771.0
1756899055.6895409,-0.6162109375,-824.0
1756899055.704105,-0.6162109375,-830.0
1756899055.7043898,-0.6162109375,-790.0
1756899055.7045953,-0.6162109375,-754.0
1756899055.7047925,-0.6162109375,-766.0
1756899055.7049897,-0.6162109375,-812.0
1756899055.7051866,-0.6162109375,-837.0
1756899055.7053823,-0.6162109375,-816.0
1756899055.7055788,-0.6162109375,-776.0
1756899055.7068634,-0.6162109375,-768.0
1756899055.7070768,-0.7255859375,-768.0
1756899055.7089226,-0.7255859375,-798.0
1756899055.7109432,-0.7255859375,-815.0
1756899055.7129061,-0.7255859375,-786.0
1756899055.7149136,-0.7255859375,-739.0
1756899055.716794,-0.7255859375,-739.0
1756899055.7187893,-0.7255859375,-808.0
1756899055.7206445,-0.7255859375,-902.0
1756899055.7227623,-0.7255859375,-954.0
1756899055.7246635,-0.7255859375,-949.0
1756899055.7267382,-0.7255859375,-927.0
1756899055.7286372,-0.7255859375,-930.0
1756899055.7305896,-0.7255859375,-965.0
1756899055.7334433,-0.7255859375,-1002.0
1756899055.734503,-0.7255859375,-1007.0
1756899055.7378457,-0.7255859375,-964.0
1756899055.7384217,-0.7255859375,-904.0
1756899055.756291,-0.70166015625,-904.0
1756899055.77238,-0.70166015625,-873.0
1756899055.7727635,-0.70166015625,-901.0
1756899055.7730882,-0.70166015625,-961.0
1756899055.780035,-0.70166015625,-990.0
1756899055.7804904,-0.70166015625,-960.0
1756899055.7806606,-0.70166015625,-916.0
1756899055.7812958,-0.70166015625,-936.0
1756899055.7813752,-0.70166015625,-1035.0
1756899055.781439,-0.70166015625,-1150.0
1756899055.781503,-0.70166015625,-1204.0
1756899055.7815657,-0.70166015625,-1180.0
1756899055.7816284,-0.70166015625,-1125.0
1756899055.7816908,-0.70166015625,-1088.0
1756899055.7817822,-0.70166015625,-1082.0
1756899055.7818482,-0.70166015625,-1094.0
1756899055.7819133,-0.70166015625,-1100.0
1756899055.7819767,-0.70166015625,-1089.0
1756899055.7823768,-0.70166015625,-1068.0
1756899055.782443,-0.70166015625,-1063.0
1756899055.7825053,-0.70166015625,-1110.0
1756899055.7825668,-0.70166015625,-1212.0
1756899055.7826302,-0.70166015625,-1314.0
1756899055.7835436,-0.70166015625,-1358.0
1756899055.7857287,-0.70166015625,-1343.0
1756899055.787405,-0.70166015625,-1315.0
1756899055.7892935,-0.70166015625,-1313.0
1756899055.7912726,-0.70166015625,-1334.0
1756899055.7932758,-0.70166015625,-1345.0
1756899055.7953725,-0.70166015625,-1337.0
1756899055.7983406,-0.70166015625,-1322.0
1756899055.7998252,-0.70166015625,-1317.0
1756899055.8031569,-0.70166015625,-1331.0
1756899055.8032753,-0.70166015625,-1368.0
1756899055.8050969,-0.70166015625,-1428.0
1756899055.8076177,-0.70166015625,-1496.0
1756899055.8079555,-0.3662109375,-1496.0
1756899055.8095334,-0.3662109375,-1553.0
1756899055.8122425,-0.3662109375,-1587.0
1756899055.8129482,-0.3662109375,-1606.0
1756899055.8150787,-0.3662109375,-1622.0
1756899055.8229992,-0.3662109375,-1639.0
1756899055.8249655,-0.3662109375,-1662.0
1756899055.826109,-0.3662109375,-1695.0
1756899055.826334,-0.3662109375,-1735.0
1756899055.826531,-0.3662109375,-1760.0
1756899055.8267272,-0.3662109375,-1760.0
1756899055.8288596,-0.3662109375,-1766.0
1756899055.830787,-0.3662109375,-1806.0
1756899055.8327417,-0.3662109375,-1859.0
1756899055.8346717,-0.3662109375,-1867.0
1756899055.8366249,-0.3662109375,-1812.0
1756899055.8386843,-0.3662109375,-1758.0
1756899055.8406432,-0.3662109375,-1768.0
1756899055.8425899,-0.3662109375,-1811.0
1756899055.8449008,-0.3662109375,-1789.0
1756899055.8493176,-0.3662109375,-1667.0
1756899055.8499606,-0.3662109375,-1538.0
1756899055.8505375,-0.3662109375,-1528.0
1756899055.8526094,-0.3662109375,-1635.0
1756899055.85437,-0.3662109375,-1733.0
1756899055.8563066,-0.3662109375,-1719.0
1756899055.8570912,0.28759765625,-1719.0
1756899055.8583744,0.28759765625,-1631.0
1756899055.8607695,0.28759765625,-1583.0
1756899055.8622527,0.28759765625,-1620.0
1756899055.8641343,0.28759765625,-1681.0
1756899055.8660939,0.28759765625,-1688.0
1756899055.8680797,0.28759765625,-1637.0
1756899055.8703775,0.28759765625,-1571.0
1756899055.8720694,0.28759765625,-1528.0
1756899055.8741505,0.28759765625,-1512.0
1756899055.8763921,0.28759765625,-1519.0
1756899055.8814259,0.28759765625,-1545.0
1756899055.8880813,0.28759765625,-1569.0
1756899055.8883178,0.28759765625,-1570.0
1756899055.8885202,0.28759765625,-1546.0
1756899055.8887188,0.28759765625,-1524.0
1756899055.8917031,0.28759765625,-1523.0
1756899055.8919215,0.28759765625,-1537.0
1756899055.8921196,0.28759765625,-1545.0
1756899055.8936734,0.28759765625,-1538.0
1756899055.8956628,0.28759765625,-1514.0
1756899055.9000654,0.28759765625,-1469.0
1756899055.9003088,0.28759765625,-1411.0
1756899055.9016132,0.28759765625,-1380.0
1756899055.9055858,0.28759765625,-1424.0
1756899055.9060793,0.28759765625,-1531.0
1756899055.9074152,0.28759765625,-1601.0
1756899055.9099731,0.28759765625,-1544.0
1756899055.9102473,0.74462890625,-1544.0
1756899055.9114528,0.74462890625,-1384.0
1756899055.9133492,0.74462890625,-1253.0
1756899055.915304,0.74462890625,-1259.0
1756899055.9207902,0.74462890625,-1369.0
1756899055.9210832,0.74462890625,-1443.0
