0,1,2
1756899050.2231262,-0.04098226764398892,-0.25430334655878845
1756899050.2235196,-0.04098226764398892,-0.3888039629289708
1756899050.225546,-0.04098226764398892,-0.4680632547185425
1756899050.2275276,-0.04098226764398892,-0.38400036948717853
1756899050.2294023,-0.04098226764398892,-0.23508897279161955
1756899050.2314088,-0.04098226764398892,-0.19425842853638564
1756899050.233393,-0.04098226764398892,-0.3023392809767107
1756899050.235417,-0.04098226764398892,-0.43203630390510084
1756899050.237214,-0.04098226764398892,-0.44644708423047746
1756899050.239129,-0.04098226764398892,-0.3888039629289708
1756899050.2412057,-0.04098226764398892,-0.4032147432543475
1756899050.2431962,-0.04098226764398892,-0.48247403504391917
1756899050.24537,-0.04098226764398892,-0.49688481536929585
1756899050.247193,-0.04098226764398892,-0.37679497932449024
1756899050.2492504,-0.04098226764398892,-0.25190154983789237
1756899050.2511926,-0.04098226764398892,-0.3119464678602952
1756899050.2531624,-0.04098226764398892,-0.5401171563454259
1756899050.255127,-0.04098226764398892,-0.7178501136917382
1756899050.256884,-0.04098226764398892,-0.669814179273816
1756899050.259026,-0.04098226764398892,-0.48247403504391917
1756899050.2609277,-0.04098226764398892,-0.3984111498125552
1756899050.262842,-0.04098226764398892,-0.5112955956946725
1756899050.2649276,-0.04098226764398892,-0.669814179273816
1756899050.266678,-0.04098226764398892,-0.6770195694365043
1756899050.2688673,-0.04098226764398892,-0.5185009858573609
1756899050.27084,-0.04098226764398892,-0.36238419899911356
1756899050.272725,-0.04098226764398892,-0.34076802851104854
1756899050.2747684,-0.04098226764398892,-0.40561653997524355
1756899050.276749,-0.04098226764398892,-0.4632596612767503
1756899050.278803,-0.04098226764398892,-0.45605427111406194
1756899050.2810955,-0.04098226764398892,-0.42242911702151636
1756899050.2827532,-0.04098226764398892,-0.41762552357972416
1756899050.2847114,-0.04098226764398892,-0.4536524743931658
1756899050.2867067,-0.04098226764398892,-0.5064920022528803
1756899050.2886844,-0.04098226764398892,-0.5305099694618415
1756899050.2905102,-0.04098226764398892,-0.4848758317648153
1756899050.2924228,-0.04098226764398892,-0.34557162195284075
1756899050.294387,-0.04098226764398892,-0.17984764821100896
1756899050.2963583,-0.04098226764398892,-0.08617757609606055
1756899050.298524,-0.04098226764398892,-0.1149991367468139
1756899050.3006785,-0.04098226764398892,-0.18465124165280117
1756899050.3029878,-0.04098226764398892,-0.17264225804832062
1756899050.304042,-0.04098226764398892,-0.06215960888709942
1756899050.306043,-0.04098226764398892,0.021903276344264533
1756899050.3080013,-0.04098226764398892,-0.03814164167813829
1756899050.3099847,-0.04098226764398892,-0.20146381869907398
1756899050.3121269,-0.04098226764398892,-0.3143482645811913
1756899050.3139544,-0.04098226764398892,-0.27111592360506126
1756899050.315916,-0.04098226764398892,-0.17984764821100896
1756899050.3179429,-0.04098226764398892,-0.21347280230355453
1756899050.3198678,-0.04098226764398892,-0.3984111498125552
1756899050.3225873,-0.04098226764398892,-0.6025638710887248
1756899050.323832,-0.04098226764398892,-0.6650105858320238
1756899050.325714,-0.04098226764398892,-0.5809477006006598
1756899050.3276942,-0.04098226764398892,-0.4656614579976464
1756899050.3297012,-0.04098226764398892,-0.4080183366961397
1756899050.3315823,-0.04098226764398892,-0.393607556370763
1756899050.3336654,-0.04098226764398892,-0.3383662317901524
1756899050.3356383,-0.04098226764398892,-0.2062674121408662
1756899050.337509,-0.04098226764398892,-0.028534454794553837
1756899050.3394043,-0.04098226764398892,0.14199311238907017
1756899050.3413785,-0.04098226764398892,0.25968115171297973
1756899050.3433716,-0.04098226764398892,0.2981098992473175
1756899050.3452666,-0.04098226764398892,0.2572793549920836
1756899050.3472846,-0.04098226764398892,0.19723443696968077
1756899050.349192,-0.04098226764398892,0.17081467303982353
1756899050.351198,-0.04098226764398892,0.1636092828771352
1756899050.3531709,-0.04098226764398892,0.07954639764577125
1756899050.3550928,-0.04098226764398892,-0.1149991367468139
1756899050.3571,-0.04098226764398892,-0.3191518580229835
1756899050.359067,-0.04098226764398892,-0.39120575964986687
1756899050.3609862,-0.04098226764398892,-0.3167500613020874
1756899050.3630905,-0.04098226764398892,-0.25430334655878845
1756899050.3649628,-0.04098226764398892,-0.33116084162746406
1756899050.366898,-0.04098226764398892,-0.48727762848571143
1756899050.3688867,-0.04098226764398892,-0.5713405137170754
1756899050.3708196,-0.04098226764398892,-0.5233045792991531
1756899050.372758,-0.04098226764398892,-0.44644708423047746
1756899050.374788,-0.04098226764398892,-0.44164349078868526
1756899050.3767602,-0.04098226764398892,-0.48247403504391917
1756899050.3786852,-0.04098226764398892,-0.5329117661827376
1756899050.3806877,-0.04098226764398892,-0.6217782448558937
1756899050.382658,-0.04098226764398892,-0.8067165923648945
1756899050.3845918,-0.04098226764398892,-1.010869313641064
1756899050.3865943,-0.04098226764398892,-1.1213519628022852
1756899050.3885674,-0.04098226764398892,-1.159780710336623
1756899050.3904457,-0.04098226764398892,-1.3086921070321822
1756899050.3924358,-0.04098226764398892,-1.6905777856546642
1756899050.3944786,-0.04098226764398892,-2.149320959345822
1756899050.3963218,-0.04098226764398892,-2.4207239888070826
1756899050.3983755,-0.04098226764398892,-2.4639563297832123
1756899050.4003544,-0.04098226764398892,-2.4783671101085893
1756899050.4022777,-0.04098226764398892,-2.617671319920564
1756899050.4043062,-0.04098226764398892,-2.7641809198952267
1756899050.406216,-0.04098226764398892,-2.6801180346638627
1756899050.4081717,-0.04098226764398892,-2.346268290459303
1756899050.410175,-0.04098226764398892,-1.9787933921621976
1756899050.4121451,-0.04098226764398892,-1.7338101266307941
1756899050.4140382,-0.04098226764398892,-1.4984340479829752
1756899050.416072,-0.04098226764398892,-1.0973339955933241
1756899050.4183297,-0.04098226764398892,-0.5545279366708026
1756899050.419978,-0.04098226764398892,-0.11740093346771002
1756899050.4219742,-0.04098226764398892,0.04111765011143344
1756899050.4239562,-0.04098226764398892,0.00989429273978397
1756899050.4258406,-0.04098226764398892,0.005090699297991743
1756899050.4285448,-0.04098226764398892,0.09635897469204403
1756899050.4303792,-0.04098226764398892,0.17561826648161577
1756899050.432197,-0.04098226764398892,0.1443949091099663
1756899050.434136,-0.04098226764398892,0.06513561732039456
1756899050.4360237,-0.04098226764398892,0.06993921076218679
1756899050.438054,-0.04098226764398892,0.1636092828771352
1756899050.439906,-0.04098226764398892,0.2044398271323691
1756899050.4415529,-0.04098226764398892,0.12277873862190128
1756899050.443504,-0.04098226764398892,-0.0045164875855927085
1756899050.4455633,-0.04098226764398892,-0.023730861352761614
1756899050.447568,-0.04098226764398892,0.10116256813383626
1756899050.4494696,-0.04098226764398892,0.25007396482939526
1756899050.4514234,-0.04098226764398892,0.2788955254801486
1756899050.453378,-0.04098226764398892,0.14199311238907017
1756899050.4552784,-0.04098226764398892,-0.050150625282618856
1756899050.457335,-0.04098226764398892,-0.11019554330502168
1756899050.4592805,-0.04098226764398892,0.06033202387860234
1756899050.461238,-0.04098226764398892,0.35575302054882424
1756899050.4632049,-0.04098226764398892,0.5406913680578249
1756899050.4651785,-0.04098226764398892,0.46623566971004543
1756899050.4671557,-0.04098226764398892,0.2380649812249147
1756899050.469107,-0.04098226764398892,0.15400209599355075
1756899050.471076,-0.04098226764398892,0.372565597595097
1756899050.473105,-0.04098226764398892,0.7160225286832411
1756899050.4749572,-0.04098226764398892,0.8577285352161118
1756899050.4769747,-0.04098226764398892,0.6535758139399422
1756899050.47893,-0.04098226764398892,0.3269314598980709
1756899050.4809265,-0.04098226764398892,0.18042185992340798
1756899050.482928,-0.04098226764398892,0.26928833859656415
1756899050.4848735,-0.04098226764398892,0.3845745811995776
1756899050.4868329,-0.04098226764398892,0.3341368500607592
1756899050.4899848,-0.04098226764398892,0.17081467303982353
1756899050.4907825,-0.04098226764398892,0.07714460092487513
1756899050.492694,-0.04098226764398892,0.10116256813383626
1756899050.4946096,-0.04098226764398892,0.13718951894727796
1756899050.4965582,-0.04098226764398892,0.12518053534279738
1756899050.498652,-0.04098226764398892,0.12277873862190128
1756899050.500589,-0.04098226764398892,0.21164521729505745
1756899050.5025406,-0.04098226764398892,0.35094942710703203
1756899050.504543,-0.04098226764398892,0.3845745811995776
1756899050.506515,-0.04098226764398892,0.29090450908462917
1756899050.50844,-0.04098226764398892,0.2044398271323691
1756899050.510465,-0.04098226764398892,0.2620829484338758
1756899050.512361,-0.04098226764398892,0.4037889549667465
1756899050.5143623,-0.04098226764398892,0.44702129594287654
1756899050.5162842,-0.04098226764398892,0.3029134926891098
1756899050.5183108,-0.04098226764398892,0.11317155173831682
1756899050.5202465,-0.04098226764398892,0.0723410074830829
1756899050.5221872,-0.04098226764398892,0.2188506074577458
1756899050.5250592,-0.04098226764398892,0.394181768083162
1756899050.5261276,-0.04098226764398892,0.4302087188966037
1756899050.5281353,-0.04098226764398892,0.3029134926891098
1756899050.530117,-0.04098226764398892,0.1491985025517585
1756899050.5321343,-0.04098226764398892,0.09635897469204403
1756899050.53397,-0.04098226764398892,0.12037694190100516
1756899050.5360038,-0.04098226764398892,0.11797514518010906
1756899050.537997,-0.04098226764398892,0.04351944683232955
1756899050.5398629,-0.04098226764398892,-0.042945235119930515
1756899050.541854,-0.04098226764398892,-0.035739844957242174
1756899050.5438905,-0.04098226764398892,0.08434999108756347
1756899050.545825,-0.04098226764398892,0.24286857466670692
1756899050.5478115,-0.04098226764398892,0.3389404435025514
1756899050.549745,-0.04098226764398892,0.32452966317717474
1756899050.551678,-0.04098226764398892,0.23326138778312247
1756899050.5537076,-0.04098226764398892,0.1491985025517585
1756899050.55562,-0.04098226764398892,0.13478772222638183
1756899050.5576231,-0.04098226764398892,0.15400209599355075
1756899050.5595942,-0.04098226764398892,0.15160029927265464
1756899050.561483,-0.04098226764398892,0.10116256813383626
1756899050.5635197,-0.04098226764398892,0.04351944683232955
1756899050.565496,-0.04098226764398892,0.053126633715914
1756899050.567391,-0.04098226764398892,0.13959131566817407
1756899050.5694196,-0.04098226764398892,0.24527037138760305
1756899050.5714018,-0.04098226764398892,0.3029134926891098
1756899050.5733154,-0.04098226764398892,0.3149224762935903
1756899050.5753164,-0.04098226764398892,0.3341368500607592
1756899050.577375,-0.04098226764398892,0.37496739431599313
1756899050.5792494,-0.04098226764398892,0.3893781746413698
1756899050.581198,-0.04098226764398892,0.30531528941000585
1756899050.5831437,-0.04098226764398892,0.1443949091099663
1756899050.5851457,-0.04098226764398892,-0.009320081027384935
1756899050.5871158,-0.04098226764398892,-0.09098116953785278
1756899050.5890973,-0.04098226764398892,-0.08617757609606055
1756899050.59102,-0.04098226764398892,-0.03333804823634606
1756899050.5929582,-0.04098226764398892,0.02670686978605676
1756899050.594981,-0.04098226764398892,0.07474280420397902
1756899050.596917,-0.04098226764398892,0.10116256813383626
1756899050.5988586,-0.04098226764398892,0.1083679582965246
1756899050.6008818,-0.04098226764398892,0.11557334845921294
1756899050.6028185,-0.04098226764398892,0.15160029927265464
1756899050.6048095,-0.04098226764398892,0.21164521729505745
1756899050.60679,-0.04098226764398892,0.24767216810849915
1756899050.6087167,-0.04098226764398892,0.19243084352788856
1756899050.610669,-0.04098226764398892,0.06753741404129068
1756899050.6126883,-0.04098226764398892,-0.03093625151544995
1756899050.6147275,-0.04098226764398892,-0.026132658073657725
1756899050.6166143,-0.04098226764398892,0.0723410074830829
1756899050.61859,-0.04098226764398892,0.18042185992340798
1756899050.6204722,-0.04098226764398892,0.21164521729505745
1756899050.6212869,0.5301781411357943,0.21164521729505745
1756899050.6225162,0.5301781411357943,0.1491985025517585
1756899050.6244245,0.5301781411357943,0.031510463227848985
1756899050.626451,0.5301781411357943,-0.06456140560799553
1756899050.6283815,0.5301781411357943,-0.095784762979645
1756899050.6303306,0.5301781411357943,-0.0573560154453072
1756899050.6323252,0.5301781411357943,-0.01412367446917716
1756899050.634261,0.5301781411357943,-0.01412367446917716
1756899050.63627,0.5301781411357943,-0.045347031840826627
1756899050.6382074,0.5301781411357943,-0.06456140560799553
1756899050.6401515,0.5301781411357943,-0.0573560154453072
1756899050.6421714,0.5301781411357943,-0.05495421872441108
1756899050.6440516,0.5301781411357943,-0.06456140560799553
1756899050.646094,0.5301781411357943,-0.040543438399034404
1756899050.6480782,0.5301781411357943,0.03631405666964121
1756899050.649981,0.5301781411357943,0.10356436485473237
1756899050.6519945,0.5301781411357943,0.04351944683232955
1756899050.653985,0.5301781411357943,-0.13901710395577505
1756899050.6558878,0.5301781411357943,-0.2639105334423729
1756899050.6573057,0.6695198869938489,-0.2639105334423729
1756899050.657797,0.6695198869938489,-0.1918566318154895
1756899050.6598265,0.6695198869938489,-0.011721877748281049
1756899050.6618326,0.6695198869938489,0.014697886181576195
1756899050.6637578,0.6695198869938489,-0.19906202197817785
1756899050.6658387,0.6695198869938489,-0.4440452875095814
1756899050.6676743,0.6695198869938489,-0.4344381006259969
1756899050.669639,0.6695198869938489,-0.17984764821100896
1756899050.6716597,0.6695198869938489,-0.018927267910969388
1756899050.6735935,0.6695198869938489,-0.21587459902445064
1756899050.675542,0.6695198869938489,-0.6578051956693355
1756899050.6775055,0.6695198869938489,-0.9652351759440378
1756899050.6794374,0.6695198869938489,-0.9099938513634273
1756899050.681486,0.6695198869938489,-0.6650105858320238
1756899050.6834252,0.6695198869938489,-0.5617333268334909
1756899050.685362,0.6695198869938489,-0.71064472352905
1756899050.6873505,0.6695198869938489,-0.9099938513634273
1756899050.6893036,0.6695198869938489,-0.8907794775962584
1756899050.6894202,0.6982327315949026,-0.8907794775962584
1756899050.6913078,0.6982327315949026,-0.6505998055066471
1756899050.6932294,0.6982327315949026,-0.42002732030062023
1756899050.695207,0.6982327315949026,-0.42002732030062023
1756899050.697193,0.6982327315949026,-0.6193764481349976
1756899050.6991365,0.6982327315949026,-0.8043147956439983
1756899050.7011526,0.6982327315949026,-0.8163237792484789
1756899050.70304,0.6982327315949026,-0.7202519104126344
1756899050.7050924,0.6982327315949026,-0.71064472352905
1756899050.7070105,0.6982327315949026,-0.8667615103872972
1756899050.7090163,0.6982327315949026,-1.0709142316634668
1756899050.711025,0.6982327315949026,-1.1477717267321426
1756899050.7129605,0.6982327315949026,-1.0637088415007785
1756899050.7149997,0.6982327315949026,-0.9508243956186612
1756899050.7168322,0.6982327315949026,-0.9412172087350767
1756899050.7190356,0.6982327315949026,-1.0180747038037523
1756899050.720869,0.6982327315949026,-1.051699857896298
1756899050.7230158,0.6982327315949026,-0.9748423628276224
1756899050.724748,0.6982327315949026,-0.8667615103872972
1756899050.727362,0.6982327315949026,-0.8283327628529594
1756899050.728631,0.6982327315949026,-0.8643597136664012
1756899050.7306104,0.6982327315949026,-0.902788461200739
1756899050.7327366,0.6982327315949026,-0.8907794775962584
1756899050.7345486,0.6982327315949026,-0.8523507300619205
1756899050.7364926,0.6982327315949026,-0.837939949736544
1756899050.7384508,0.6982327315949026,-0.8427435431783361
1756899050.7404437,0.6982327315949026,-0.8331363562947517
1756899050.7423944,0.6982327315949026,-0.7923058120395178
1756899050.7444062,0.6982327315949026,-0.7466716743424916
1756899050.746313,0.6982327315949026,-0.7250555038544266
1756899050.7482994,0.6982327315949026,-0.7490734710633877
1756899050.750242,0.6982327315949026,-0.8163237792484789
1756899050.752266,0.6982327315949026,-0.9244046316888039
1756899050.754236,0.6982327315949026,-1.0180747038037523
1756899050.7561226,0.6982327315949026,-1.0372890775709214
1756899050.7580843,0.6982327315949026,-0.9700387693858301
1756899050.7600958,0.6982327315949026,-0.8787704939917779
1756899050.7620876,0.6982327315949026,-0.8355381530156478
1756899050.7640607,0.6982327315949026,-0.8571543235037128
1756899050.766013,0.6982327315949026,-0.8907794775962584
1756899050.76812,0.6982327315949026,-0.8739669005499856
1756899050.7699172,0.6982327315949026,-0.7995112022022061
1756899050.77193,0.6982327315949026,-0.7082429268081538
1756899050.7738829,0.6982327315949026,-0.6457962120648548
1756899050.7758207,0.6982327315949026,-0.6578051956693355
1756899050.777783,0.6982327315949026,-0.7418680809006993
1756899050.7797422,0.6982327315949026,-0.8211273726902711
1756899050.7817135,0.6982327315949026,-0.8115201858066866
1756899050.7836854,0.6982327315949026,-0.7010375366454654
1756899050.785693,0.6982327315949026,-0.6097692612514132
1756899050.7861855,0.5338376213300463,-0.6097692612514132
1756899050.787653,0.5338376213300463,-0.6361890251812704
1756899050.7895875,0.5338376213300463,-0.7418680809006993
1756899050.7916703,0.5338376213300463,-0.775493234993245
1756899050.7935064,0.5338376213300463,-0.6722159759947121
1756899050.795658,0.5338376213300463,-0.5569297333916987
1756899050.7974331,0.5338376213300463,-0.564135123554387
1756899050.7994564,0.5338376213300463,-0.691430349761881
1756899050.801373,0.5338376213300463,-0.8043147956439983
1756899050.8033402,0.5338376213300463,-0.8163237792484789
1756899050.8053482,0.5338376213300463,-0.7947076087604139
1756899050.8072827,0.5338376213300463,-0.8211273726902711
1756899050.809335,0.5338376213300463,-0.8691633071081933
1756899050.811203,0.5338376213300463,-0.8451453398992322
1756899050.8132324,0.5338376213300463,-0.7706896415514527
1756899050.8151398,0.5338376213300463,-0.75387706450518
1756899050.8171723,0.5338376213300463,-0.8115201858066866
1756899050.8190703,0.5338376213300463,-0.8451453398992322
1756899050.821052,0.5338376213300463,-0.7634842513887644
1756899050.8229992,0.5338376213300463,-0.6578051956693355
1756899050.824965,0.5338376213300463,-0.6818231628782966
1756899050.826968,0.5338376213300463,-0.8499489333410245
1756899050.8289008,0.5338376213300463,-1.0036639234783757
1756899050.8299508,0.3362256908404416,-1.0036639234783757
1756899050.8310213,0.3362256908404416,-1.010869313641064
1756899050.8328218,0.3362256908404416,-0.9196010382470118
1756899050.8350315,0.3362256908404416,-0.88357408743357
1756899050.8367882,0.3362256908404416,-0.9556279890604534
1756899050.838965,0.3362256908404416,-1.0420926710127134
1756899050.84066,0.3362256908404416,-1.049298061175402
1756899050.8427162,0.3362256908404416,-0.9988603300365835
1756899050.8440382,0.17014158971669982,-0.9988603300365835
1756899050.848318,0.17014158971669982,-0.9556279890604534
1756899050.8520794,0.11707912690004672,-0.9556279890604534
1756899050.8538437,0.11707912690004672,-0.9508243956186612
1756899050.854045,0.11707912690004672,-0.9196010382470118
1756899050.8542411,0.11707912690004672,-0.8139219825275827
1756899050.8544364,0.11707912690004672,-0.7010375366454654
1756899050.85835,0.11707912690004672,-0.6578051956693355
1756899050.8585515,0.11707912690004672,-0.6842249595991927
1756899050.8587468,0.11707912690004672,-0.7130465202499461
1756899050.8603313,0.11707912690004672,-0.71064472352905
1756899050.86231,0.11707912690004672,-0.6986357399245694
1756899050.8643296,0.11707912690004672,-0.7586806579469721
1756899050.8663144,0.11707912690004672,-0.8787704939917779
1756899050.868179,0.11707912690004672,-0.9556279890604534
1756899050.8701866,0.11707912690004672,-0.9075920546425312
1756899050.8721602,0.11707912690004672,-0.7947076087604139
1756899050.874111,0.11707912690004672,-0.7658860481096605
1756899050.8761382,0.11707912690004672,-0.88357408743357
1756899050.8780456,0.11707912690004672,-1.0060657201992718
1756899050.8793256,0.09638898887869922,-1.0060657201992718
1756899050.8800116,0.09638898887869922,-0.9652351759440378
1756899050.882098,0.09638898887869922,-0.7971094054813099
1756899050.8839562,0.09638898887869922,-0.7322608940171149
1756899050.885949,0.09638898887869922,-0.9292082251305962
1756899050.8878822,0.09638898887869922,-1.2246292218008181
1756899050.8898408,0.09638898887869922,-1.3086921070321822
1756899050.8917437,0.07963982952808459,-1.3086921070321822
1756899050.8918068,0.07963982952808459,-1.0973339955933241
1756899050.893861,0.07963982952808459,-0.8667615103872972
1756899050.895789,0.07963982952808459,-0.9196010382470118
1756899050.8976707,0.07963982952808459,-1.1958076611500648
1756899050.899671,0.07963982952808459,-1.34712085456652
1756899050.9017067,0.07963982952808459,-1.1453699300112463
1756899050.9036806,0.07963982952808459,-0.775493234993245
1756899050.905617,0.07963982952808459,-0.6025638710887248
1756899050.9077008,0.07963982952808459,-0.7490734710633877
1756899050.9095392,0.07963982952808459,-1.0036639234783757
1756899050.9116423,0.07963982952808459,-1.073316028384363
1756899050.9134457,0.07963982952808459,-0.9003866644798428
1756899050.915397,0.07963982952808459,-0.6530016022275432
1756899050.9174109,0.07963982952808459,-0.520902782578257
1756899050.9194283,0.07963982952808459,-0.5761441071588675
1756899050.92126,0.07963982952808459,-0.7466716743424916
1756899050.9231317,0.04241165601348313,-0.7466716743424916
1756899050.923262,0.04241165601348313,-0.9388154120141806
1756899050.9252834,0.04241165601348313,-1.051699857896298
1756899050.927179,0.04241165601348313,-1.032485484129129
1756899050.9292057,0.04241165601348313,-0.9388154120141806
1756899050.9311402,0.04241165601348313,-0.8979848677589467
1756899050.933277,0.04241165601348313,-0.9820477529903107
1756899050.9350705,0.04241165601348313,-1.1477717267321426
1756899050.937107,0.04241165601348313,-1.2702633594978443
1756899050.939088,0.04241165601348313,-1.2678615627769483
1756899050.9409626,0.04241165601348313,-1.1621825070575191
1756899050.943045,0.04241165601348313,-1.0276818906873368
1756899050.944935,0.04241165601348313,-0.9196010382470118
1756899050.9471784,0.04241165601348313,-0.861957916945505
1756899050.9488726,0.04241165601348313,-0.8691633071081933
1756899050.9569056,0.04241165601348313,-0.9292082251305962
1756899050.957136,0.04241165601348313,-0.9892531431529991
1756899050.9573345,0.04241165601348313,-1.010869313641064
1756899050.9575317,0.04241165601348313,-0.9988603300365835
1756899050.9586515,0.04241165601348313,-0.9964585333156873
1756899050.9606256,0.04241165601348313,-1.0420926710127134
1756899050.9625812,0.04241165601348313,-1.1093429791978047
1756899050.9629853,-0.016931741559650458,-1.1093429791978047
1756899050.9645672,-0.016931741559650458,-1.1333609464067658
1756899050.96655,-0.016931741559650458,-1.0949321988724279
1756899050.9703324,-0.016931741559650458,-1.032485484129129
1756899050.9705777,-0.016931741559650458,-1.01327111036196
1756899050.9724305,-0.016931741559650458,-1.0396908742918174
1756899050.9745882,-0.016931741559650458,-1.0709142316634668
1756899050.9764142,-0.016931741559650458,-1.0468962644545057
1756899050.978331,-0.016931741559650458,-0.9820477529903107
1756899050.9802914,-0.016931741559650458,-0.9556279890604534
1756899050.9822583,-0.016931741559650458,-1.0228782972455446
1756899050.9843495,-0.016931741559650458,-1.1477717267321426
1756899050.9862294,-0.016931741559650458,-1.2174238316381298
1756899050.9868796,-0.058188862018885054,-1.2174238316381298
1756899050.9923906,-0.058188862018885054,-1.1741914906619997
1756899050.9926276,-0.058188862018885054,-1.0781196218261553
1756899050.992829,-0.058188862018885054,-1.0300836874082329
1756899050.9941306,-0.058188862018885054,-1.0589052480589862
1756899050.9960272,-0.058188862018885054,-1.1021375890351164
1756899050.9979775,-0.058188862018885054,-1.1261555562440775
1756899050.9999938,-0.058188862018885054,-1.1573789136157269
1756899051.0019276,-0.058188862018885054,-1.200611254591857
1756899051.0039003,-0.058188862018885054,-1.1837986775455842
1756899051.0058482,-0.058188862018885054,-1.032485484129129
1756899051.0078125,-0.058188862018885054,-0.8259309661320633
1756899051.0097704,-0.058188862018885054,-0.7298590972962188
1756899051.011757,-0.058188862018885054,-0.7995112022022061
1756899051.0137172,-0.058188862018885054,-0.8979848677589467
1756899051.0156727,-0.058188862018885054,-0.8211273726902711
1756899051.0176406,-0.058188862018885054,-0.5569297333916987
1756899051.022684,-0.13690287350486183,-0.5569297333916987
1756899051.024859,-0.13690287350486183,-0.3143482645811913
1756899051.025097,-0.13690287350486183,-0.27351772032595734
1756899051.025328,-0.13690287350486183,-0.38400036948717853
1756899051.0271597,-0.13690287350486183,-0.4704650514394386
1756899051.029007,-0.13690287350486183,-0.45845606783495807
1756899051.029384,-0.13690287350486183,-0.44644708423047746
1756899051.0575037,-0.1860947322699023,-0.44644708423047746
1756899051.0923843,-0.1860947322699023,-0.5569297333916987
1756899051.0926323,-0.1860947322699023,-0.75387706450518
1756899051.092862,-0.1860947322699023,-0.8859758841544662
1756899051.0930643,-0.1860947322699023,-0.8739669005499856
1756899051.0968375,-0.1373251212195832,-0.8739669005499856
1756899051.1081638,-0.1373251212195832,-0.8043147956439983
1756899051.1084538,-0.1373251212195832,-0.8043147956439983
1756899051.1106231,-0.1373251212195832,-0.8811722907126739
1756899051.1161036,-0.1373251212195832,-0.9220028349679078
1756899051.1163545,-0.1373251212195832,-0.8355381530156478
1756899051.116564,-0.1373251212195832,-0.691430349761881
1756899051.116767,-0.1373251212195832,-0.6001620743678288
1756899051.1169662,-0.1373251212195832,-0.6001620743678288
1756899051.1171927,-0.1373251212195832,-0.6145728546932054
1756899051.1173964,-0.1373251212195832,-0.5737423104379715
1756899051.1175935,-0.1373251212195832,-0.5088937989737764
1756899051.1178482,-0.1373251212195832,-0.48247403504391917
1756899051.1180477,-0.1373251212195832,-0.49208122192750364
1756899051.118244,-0.1373251212195832,-0.46085786455585415
1756899051.1184404,-0.1373251212195832,-0.36238419899911356
1756899051.1186357,-0.1373251212195832,-0.266312330163269
1756899051.1188323,-0.1373251212195832,-0.27591951704685347
1756899051.1190293,-0.1373251212195832,-0.39600935309165913
1756899051.1192253,-0.1373251212195832,-0.5377153596245298
1756899051.1194212,-0.1373251212195832,-0.6169746514141015
1756899051.119619,-0.1373251212195832,-0.6361890251812704
1756899051.1199076,-0.1373251212195832,-0.669814179273816
1756899051.1220436,-0.1373251212195832,-0.75387706450518
1756899051.122253,-0.1373251212195832,-0.8787704939917779
1756899051.1224923,-0.1373251212195832,-0.9940567365947912
1756899051.122691,-0.1373251212195832,-1.0613070447798825
1756899051.1230469,-0.1373251212195832,-1.0805214185470513
1756899051.126125,-0.1373251212195832,-1.0781196218261553
1756899051.1261847,-0.1373251212195832,-1.1213519628022852
1756899051.1262288,-0.1373251212195832,-1.2822723431023249
1756899051.126271,-0.1373251212195832,-1.5560771692844817
1756899051.1263137,-0.1373251212195832,-1.8490963692338076
1756899051.1263556,-0.1373251212195832,-2.0820706511607305
1756899051.1268322,-0.1373251212195832,-2.2934287625995884
1756899051.127199,-0.1373251212195832,-2.579242572386226
1756899051.127244,-0.1373251212195832,-2.944315673962435
1756899051.1272864,-0.1373251212195832,-3.239736670632657
1756899051.1273284,-0.1373251212195832,-3.278165418166995
1756899051.1273696,-0.1373251212195832,-3.071610900169929
1756899051.127601,-0.1373251212195832,-2.788198887104188
1756899051.1276448,-0.1373251212195832,-2.5672335887817455
1756899051.127754,-0.1373251212195832,-2.3558754773428876
1756899051.1279607,-0.1373251212195832,-2.007614952812951
1756899051.1280046,-0.1373251212195832,-1.493630454541183
1756899051.1282358,-0.1373251212195832,-0.9628333792231418
1756899051.1282785,-0.1373251212195832,-0.5929566842051404
1756899051.1295297,-0.1373251212195832,-0.4032147432543475
1756899051.1315095,-0.1373251212195832,-0.2783213137677496
1756899051.1334708,-0.1373251212195832,-0.12460632363039835
1756899051.1423123,-0.09590965786732811,-0.12460632363039835
1756899051.1545672,-0.09590965786732811,0.029108666506952874
1756899051.163317,-0.09590965786732811,0.0723410074830829
1756899051.1643443,-0.09590965786732811,-0.016525471190073273
1756899051.165019,-0.09590965786732811,-0.15823147772294394
1756899051.1660078,-0.09590965786732811,-0.23028537934982732
1756899051.1662946,-0.09590965786732811,-0.2038656154199701
1756899051.1664176,-0.09590965786732811,-0.17984764821100896
1756899051.1665363,-0.09590965786732811,-0.25430334655878845
1756899051.1666577,-0.09590965786732811,-0.4080183366961397
1756899051.167031,-0.09590965786732811,-0.48727762848571143
1756899051.167249,-0.09590965786732811,-0.3527770121155291
1756899051.1673734,-0.09590965786732811,-0.06456140560799553
1756899051.167582,-0.09590965786732811,0.14199311238907017
1756899051.1677008,-0.09590965786732811,0.06993921076218679
1756899051.1678195,-0.09590965786732811,-0.1702404613274245
1756899051.1712053,-0.09590965786732811,-0.2687141268841651
1756899051.1718824,-0.09590965786732811,-0.047748828561722745
1756899051.1722577,-0.09590965786732811,0.2788955254801486
1756899051.1725187,-0.09590965786732811,0.33653864678165535
1756899051.172994,-0.09590965786732811,0.021903276344264533
1756899051.1749055,-0.09590965786732811,-0.3575806055573213
1756899051.1763065,0.003248180473075372,-0.3575806055573213
1756899051.176762,0.003248180473075372,-0.44644708423047746
1756899051.178717,0.003248180473075372,-0.23028537934982732
1756899051.180941,0.003248180473075372,-0.026132658073657725
1756899051.1830735,0.003248180473075372,-0.040543438399034404
1756899051.1848676,0.003248180473075372,-0.1894548350945934
1756899051.1866598,0.003248180473075372,-0.23508897279161955
1756899051.1890662,0.003248180473075372,-0.12220452690950225
1756899051.191907,0.003248180473075372,0.00989429273978397
1756899051.200754,0.003248180473075372,0.000287105856199517
1756899051.200871,0.003248180473075372,-0.12940991707219057
1756899051.2009478,0.003248180473075372,-0.2470979563961001
1756899051.201025,0.003248180473075372,-0.2639105334423729
1756899051.2011,0.003248180473075372,-0.20146381869907398
1756899051.2023482,0.003248180473075372,-0.1510260875602556
1756899051.206457,0.003248180473075372,-0.17744585149011285
1756899051.2069094,0.003248180473075372,-0.266312330163269
1756899051.2102711,0.003248180473075372,-0.3191518580229835
1756899051.210663,0.003248180473075372,-0.19666022525728175
1756899051.2124786,0.003248180473075372,0.11317155173831682
1756899051.2193797,0.003248180473075372,0.42780692217570765
1756899051.2200172,0.003248180473075372,0.478244653314526
1756899051.2207615,0.003248180473075372,0.15640389271444685
1756899051.222584,0.003248180473075372,-0.3143482645811913
1756899051.223752,0.003248180473075372,-0.5593315301125948
1756899051.2326295,0.003248180473075372,-0.44644708423047746
1756899051.2333913,0.003248180473075372,-0.2062674121408662
1756899051.2336223,0.003248180473075372,-0.19425842853638564
1756899051.23386,0.003248180473075372,-0.4896794252066075
1756899051.2349682,0.003248180473075372,-0.8235291694111673
1756899051.2359717,0.003248180473075372,-0.8595561202246089
1756899051.23625,0.003248180473075372,-0.5665369202752831
1756899051.2369244,0.13875450958907742,-0.5665369202752831
1756899051.2416089,0.13875450958907742,-0.23028537934982732
1756899051.2419355,0.13875450958907742,-0.12220452690950225
1756899051.24214,0.13875450958907742,-0.23268717607072345
1756899051.2485795,0.13875450958907742,-0.35998240227821743
1756899051.2489,0.13875450958907742,-0.36238419899911356
1756899051.2492025,0.13875450958907742,-0.3167500613020874
1756899051.2499137,0.13875450958907742,-0.34557162195284075
1756899051.2568958,0.12496108424151244,-0.34557162195284075
1756899051.2577984,0.12496108424151244,-0.4440452875095814
1756899051.2581556,0.12496108424151244,-0.48247403504391917
1756899051.2583609,0.12496108424151244,-0.4248309137424125
1756899051.2591052,0.12496108424151244,-0.3551788088364252
1756899051.2594745,0.12496108424151244,-0.371991385882698
1756899051.261361,0.12496108424151244,-0.41762552357972416
1756899051.263343,0.12496108424151244,-0.371991385882698
1756899051.265515,0.12496108424151244,-0.23028537934982732
1756899051.2673512,0.12496108424151244,-0.16303507116473617
1756899051.2695727,0.12496108424151244,-0.29513389081402236
1756899051.271382,0.12496108424151244,-0.520902782578257
1756899051.273058,0.12496108424151244,-0.6169746514141015
1756899051.2750473,0.12496108424151244,-0.5281081727409453
1756899051.2771363,0.12496108424151244,-0.4536524743931658
1756899051.2790394,0.12496108424151244,-0.5689387169961793
1756899051.2831848,0.12496108424151244,-0.7802968284350372
1756899051.2834623,0.12496108424151244,-0.818725575969375
1756899051.286455,0.12496108424151244,-0.5737423104379715
1756899051.2869496,0.12496108424151244,-0.23268717607072345
1756899051.289037,0.12496108424151244,-0.06936499904978775
1756899051.2912166,0.12496108424151244,-0.1366153072348789
1756899051.2986078,0.09237763558884614,-0.1366153072348789
1756899051.2989566,0.09237763558884614,-0.2615087367214768
1756899051.299272,0.09237763558884614,-0.27591951704685347
1756899051.29973,0.09237763558884614,-0.19906202197817785
1756899051.3005185,0.09237763558884614,-0.16303507116473617
1756899051.3007245,0.09237763558884614,-0.2422943629543079
1756899051.3026717,0.09237763558884614,-0.36718779244090577
1756899051.3047042,0.09237763558884614,-0.4680632547185425
1756899051.3120944,0.09237763558884614,-0.5737423104379715
1756899051.312315,0.09237763558884614,-0.7130465202499461
1756899051.3125124,0.09237763558884614,-0.818725575969375
1756899051.3127074,0.09237763558884614,-0.7514752677842839
1756899051.3144853,0.09237763558884614,-0.4944830186483998
1756899051.3164325,0.09237763558884614,-0.25190154983789237
1756899051.3185449,0.09237763558884614,-0.25190154983789237
1756899051.320424,0.09237763558884614,-0.4896794252066075
1756899051.3223794,0.09237763558884614,-0.6986357399245694
1756899051.324388,0.09237763558884614,-0.6337872284603743
1756899051.3262806,0.09237763558884614,-0.3695895891618019
1756899051.3289263,0.09237763558884614,-0.23268717607072345
1756899051.3305366,0.09237763558884614,-0.4272327104633086
1756899051.3352242,-0.04078365177557351,-0.4272327104633086
1756899051.3356326,-0.04078365177557351,-0.7995112022022061
1756899051.3358552,-0.04078365177557351,-0.9796459562694145
1756899051.3360934,-0.04078365177557351,-0.7899040153186216
1756899051.3382647,-0.04078365177557351,-0.42242911702151636
1756899051.340109,-0.04078365177557351,-0.20146381869907398
1756899051.3420382,-0.04078365177557351,-0.23749076951251566
1756899051.3440108,-0.04078365177557351,-0.36238419899911356
1756899051.3460393,-0.04078365177557351,-0.3743931826035941
1756899051.3483033,-0.04078365177557351,-0.266312330163269
1756899051.349898,-0.04078365177557351,-0.1870530383736973
1756899051.3552952,-0.04078365177557351,-0.266312330163269
1756899051.355534,-0.04078365177557351,-0.4680632547185425
1756899051.355768,-0.04078365177557351,-0.626581838297686
1756899051.3578608,-0.04078365177557351,-0.6409926186230627
1756899051.366767,-0.04078365177557351,-0.5593315301125948
1756899051.3669915,-0.04078365177557351,-0.5233045792991531
1756899051.3672285,-0.04078365177557351,-0.5833494973215559
1756899051.3674333,-0.04078365177557351,-0.6626087891111276
1756899051.367674,-0.04078365177557351,-0.6626087891111276
1756899051.3722413,-0.04078365177557351,-0.5953584809260365
1756899051.372451,-0.04078365177557351,-0.5809477006006598
1756899051.3812797,-0.22170428954473848,-0.5809477006006598
1756899051.390082,-0.22170428954473848,-0.6626087891111276
1756899051.3907485,-0.22170428954473848,-0.7802968284350372
1756899051.3909607,-0.22170428954473848,-0.8259309661320633
1756899051.3911717,-0.22170428954473848,-0.8115201858066866
1756899051.3913689,-0.22170428954473848,-0.8643597136664012
1756899051.3917074,-0.22170428954473848,-0.9964585333156873
1756899051.3919747,-0.22170428954473848,-1.0613070447798825
1756899051.392212,-0.22170428954473848,-0.9436190054559729
1756899051.3926735,-0.22170428954473848,-0.7610824546678683
1756899051.3936148,-0.22170428954473848,-0.7442698776215955
1756899051.393966,-0.22170428954473848,-0.9508243956186612
1756899051.3965757,-0.22170428954473848,-1.1645843037784152
1756899051.397087,-0.22170428954473848,-1.159780710336623
1756899051.4003904,-0.22170428954473848,-0.9940567365947912
1756899051.401045,-0.22170428954473848,-0.9147974448052195
1756899051.4030404,-0.22170428954473848,-1.0589052480589862
1756899051.4049904,-0.22170428954473848,-1.2750669529396366
1756899051.4171178,-0.22170428954473848,-1.325504684078455
1756899051.4182222,-0.22170428954473848,-1.1741914906619997
1756899051.418428,-0.22170428954473848,-0.9988603300365835
1756899051.4186263,-0.22170428954473848,-0.967636972664934
1756899051.418823,-0.22170428954473848,-1.0613070447798825
1756899051.4189696,-0.3489416009141136,-1.0613070447798825
1756899051.41902,-0.3489416009141136,-1.1477717267321426
1756899051.419215,-0.3489416009141136,-1.1573789136157269
1756899051.4206643,-0.3489416009141136,-1.1333609464067658
1756899051.422665,-0.3489416009141136,-1.1429681332903503
1756899051.4255884,-0.3489416009141136,-1.1525753201739346
1756899051.4268394,-0.3489416009141136,-1.1021375890351164
1756899051.4314156,-0.3489416009141136,-1.010869313641064
1756899051.4320257,-0.3489416009141136,-0.9340118185723885
1756899051.432478,-0.3489416009141136,-0.9292082251305962
1756899051.4344432,-0.3489416009141136,-0.9652351759440378
1756899051.4363816,-0.3489416009141136,-0.9652351759440378
1756899051.438358,-0.3489416009141136,-0.8979848677589467
1756899051.4405818,-0.3489416009141136,-0.8259309661320633
1756899051.4430206,-0.3489416009141136,-0.8331363562947517
1756899051.445093,-0.3489416009141136,-0.946020802176869
1756899051.447012,-0.3489416009141136,-1.075717825105259
1756899051.448184,-0.3489416009141136,-1.114146572639597
1756899051.450195,-0.3489416009141136,-1.0420926710127134
1756899051.4521644,-0.3489416009141136,-0.9556279890604534
1756899051.454304,-0.3489416009141136,-0.9364136152932845
1756899051.4564395,-0.3489416009141136,-0.9748423628276224
1756899051.4581015,-0.3489416009141136,-0.9772441595485184
1756899051.460086,-0.3489416009141136,-0.8955830710380506
1756899051.4620252,-0.3489416009141136,-0.7971094054813099
1756899051.4636147,-0.47111193970683213,-0.7971094054813099
1756899051.464316,-0.47111193970683213,-0.7706896415514527
1756899051.4676104,-0.47111193970683213,-0.8115201858066866
1756899051.471496,-0.47111193970683213,-0.818725575969375
1756899051.4717095,-0.47111193970683213,-0.7394662841798033
1756899051.4719937,-0.47111193970683213,-0.6578051956693355
1756899051.474372,-0.47111193970683213,-0.7130465202499461
1756899051.4756584,-0.47111193970683213,-0.8907794775962584
1756899051.47794,-0.47111193970683213,-1.0012621267574795
1756899051.4847395,-0.47111193970683213,-0.9244046316888039
1756899051.4856808,-0.47111193970683213,-0.756278861226076
1756899051.4894238,-0.47111193970683213,-0.7298590972962188
1756899051.4897227,-0.47111193970683213,-0.9075920546425312
1756899051.489921,-0.47111193970683213,-1.0973339955933241
1756899051.4901218,-0.47111193970683213,-1.0853250119888436
1756899051.4915383,-0.47111193970683213,-0.8787704939917779
1756899051.493806,-0.47111193970683213,-0.7130465202499461
1756899051.495377,-0.47111193970683213,-0.734662690738011
1756899051.497435,-0.47111193970683213,-0.861957916945505
1756899051.499384,-0.47111193970683213,-0.8955830710380506
1756899051.5013618,-0.47111193970683213,-0.7634842513887644
1756899051.5024464,-0.5839928287756804,-0.7634842513887644
1756899051.5032892,-0.5839928287756804,-0.5953584809260365
1756899051.5052545,-0.5839928287756804,-0.5497243432290103
1756899051.5100946,-0.5839928287756804,-0.6578051956693355
1756899051.5109117,-0.5839928287756804,-0.8115201858066866
1756899051.511305,-0.5839928287756804,-0.8763686972708817
1756899051.5191023,-0.5839928287756804,-0.8043147956439983
1756899051.5195456,-0.5839928287756804,-0.6554033989484394
1756899051.519745,-0.5839928287756804,-0.5257063760200492
1756899051.51995,-0.5839928287756804,-0.48247403504391917
1756899051.5209277,-0.5839928287756804,-0.5160991891364648
1756899051.5229387,-0.5839928287756804,-0.5521261399499064
1756899051.5249567,-0.5839928287756804,-0.5185009858573609
1756899051.5271137,-0.5839928287756804,-0.4248309137424125
1756899051.5288448,-0.5839928287756804,-0.38159857276628245
1756899051.5349977,-0.5839928287756804,-0.48727762848571143
1756899051.5354054,-0.5839928287756804,-0.7130465202499461
1756899051.535617,-0.5839928287756804,-0.9123956480843234
1756899051.536631,-0.5839928287756804,-0.9652351759440378
1756899051.538129,-0.6394480286424212,-0.9652351759440378
1756899051.539023,-0.6394480286424212,-0.8859758841544662
1756899051.5406342,-0.6394480286424212,-0.8139219825275827
1756899051.544551,-0.6394480286424212,-0.8475471366201284
1756899051.5451777,-0.6394480286424212,-0.9316100218514923
1756899051.572343,-0.6394480286424212,-0.9292082251305962
1756899051.5725849,-0.6394480286424212,-0.8067165923648945
1756899051.5727854,-0.6394480286424212,-0.6722159759947121
1756899051.5729809,-0.6394480286424212,-0.6169746514141015
1756899051.574195,-0.6394480286424212,-0.5905548874842442
1756899051.5743978,-0.6394480286424212,-0.48727762848571143
1756899051.5745945,-0.6394480286424212,-0.3239554514647757
1756899051.574791,-0.6394480286424212,-0.2783213137677496
1756899051.5749862,-0.6394480286424212,-0.4536524743931658
1756899051.575181,-0.6394480286424212,-0.7250555038544266
1756899051.5753765,-0.6394480286424212,-0.8307345595738556
1756899051.5755725,-0.6394480286424212,-0.6818231628782966
1756899051.5757666,-0.6394480286424212,-0.4800722383230231
1756899051.5759623,-0.6394480286424212,-0.49208122192750364
1756899051.576157,-0.6394480286424212,-0.7250555038544266
1756899051.5763514,-0.6394480286424212,-0.9292082251305962
1756899051.5780282,-0.6394480286424212,-0.9123956480843234
1756899051.5800557,-0.6394480286424212,-0.7394662841798033
1756899051.584801,-0.6394480286424212,-0.6121710579723093
1756899051.5850618,-0.6394480286424212,-0.6169746514141015
1756899051.5858195,-0.6394480286424212,-0.6722159759947121
1756899051.5878527,-0.6394480286424212,-0.669814179273816
1756899051.5898287,-0.6394480286424212,-0.6121710579723093
1756899051.592059,-0.6394480286424212,-0.5761441071588675
1756899051.5939963,-0.6394480286424212,-0.5929566842051404
1756899051.5944784,-0.6788578153497499,-0.5929566842051404
1756899051.5957656,-0.6788578153497499,-0.6241800415767899
1756899051.5977924,-0.6788578153497499,-0.6385908219021665
1756899051.5996945,-0.6788578153497499,-0.6385908219021665
1756899051.6021664,-0.6788578153497499,-0.6505998055066471
1756899051.6035028,-0.6788578153497499,-0.7058411300872577
1756899051.6055176,-0.6788578153497499,-0.8019129989231022
1756899051.6075506,-0.6788578153497499,-0.8907794775962584
1756899051.609682,-0.6788578153497499,-0.8955830710380506
1756899051.6125317,-0.6788578153497499,-0.7851004218768294
1756899051.6133888,-0.6788578153497499,-0.6241800415767899
1756899051.6159663,-0.6788578153497499,-0.5353135629036336
1756899051.617581,-0.6788578153497499,-0.564135123554387
1756899051.619225,-0.6788578153497499,-0.6145728546932054
1756899051.6195576,-0.7390984893166663,-0.6145728546932054
1756899051.621407,-0.7390984893166663,-0.5521261399499064
1756899051.6232126,-0.7390984893166663,-0.38159857276628245
1756899051.6318464,-0.7390984893166663,-0.25190154983789237
1756899051.6321814,-0.7390984893166663,-0.27111592360506126
1756899051.632778,-0.7390984893166663,-0.393607556370763
1756899051.646901,-0.7390984893166663,-0.499286612090192
1756899051.6471992,-0.7390984893166663,-0.5809477006006598
1756899051.6474056,-0.7390984893166663,-0.7226537071335305
1756899051.6476035,-0.7390984893166663,-0.946020802176869
1756899051.65037,-0.7390984893166663,-1.1309591496858697
1756899051.656009,-0.7390984893166663,-1.1741914906619997
1756899051.656381,-0.7390984893166663,-1.0997357923142201
1756899051.6567383,-0.7390984893166663,-1.0276818906873368
1756899051.6570263,-0.7390984893166663,-0.9988603300365835
1756899051.6573966,-0.7390984893166663,-0.9171992415261156
1756899051.6575058,-0.6191801383357951,-0.9171992415261156
1756899051.6577384,-0.6191801383357951,-0.7130465202499461
1756899051.6589944,-0.6191801383357951,-0.5016884088110881
1756899051.6645555,-0.6191801383357951,-0.47286684816033475
1756899051.664787,-0.6191801383357951,-0.6457962120648548
1756899051.6649835,-0.6191801383357951,-0.8211273726902711
1756899051.6651788,-0.6191801383357951,-0.8211273726902711
1756899051.6653745,-0.6191801383357951,-0.7130465202499461
1756899051.6655712,-0.6191801383357951,-0.7082429268081538
1756899051.6665049,-0.6191801383357951,-0.9244046316888039
1756899051.6684933,-0.6191801383357951,-1.2126202381963376
1756899051.6704402,-0.6191801383357951,-1.3231028873575588
1756899051.674034,-0.6191801383357951,-1.1645843037784152
1756899051.6743023,-0.6191801383357951,-0.8859758841544662
1756899051.676454,-0.6191801383357951,-0.669814179273816
1756899051.6784933,-0.6191801383357951,-0.564135123554387
1756899051.6854274,-0.6191801383357951,-0.4944830186483998
1756899051.6860588,-0.6191801383357951,-0.39600935309165913
1756899051.6864774,-0.6191801383357951,-0.2927320940931263
1756899051.6867592,-0.6191801383357951,-0.23749076951251566
1756899051.6881328,-0.6191801383357951,-0.2398925662334118
1756899051.6901095,-0.6191801383357951,-0.287928500651334
1756899051.692083,-0.6191801383357951,-0.3791967760453863
1756899051.6987014,-0.15330015975987532,-0.3791967760453863
1756899051.699263,-0.15330015975987532,-0.5088937989737764
1756899051.7000504,-0.15330015975987532,-0.6217782448558937
1756899051.7004292,-0.15330015975987532,-0.6530016022275432
1756899051.7007427,-0.15330015975987532,-0.6121710579723093
1756899051.7019277,-0.15330015975987532,-0.5905548874842442
1756899051.7038612,-0.15330015975987532,-0.6409926186230627
1756899051.705788,-0.15330015975987532,-0.7034393333663616
1756899051.7077637,-0.15330015975987532,-0.6866267563200887
1756899051.7097251,-0.15330015975987532,-0.5785459038797637
1756899051.7227404,-0.15330015975987532,-0.4680632547185425
1756899051.7303824,-0.15330015975987532,-0.42242911702151636
1756899051.7307136,-0.15330015975987532,-0.4272327104633086
1756899051.7312846,-0.15330015975987532,-0.43203630390510084
1756899051.731592,-0.15330015975987532,-0.4248309137424125
1756899051.7319038,-0.15330015975987532,-0.40561653997524355
1756899051.7322106,-0.15330015975987532,-0.3743931826035941
1756899051.7325268,-0.15330015975987532,-0.3335626383483602
1756899051.732846,-0.15330015975987532,-0.32635724818567186
1756899051.7377458,-0.15330015975987532,-0.393607556370763
1756899051.738037,-0.15330015975987532,-0.4896794252066075
1756899051.7383108,-0.15330015975987532,-0.5040902055319842
1756899051.7385116,-0.15330015975987532,-0.39120575964986687
1756899051.739082,-0.15330015975987532,-0.2807231104886457
1756899051.739442,-0.15330015975987532,-0.2927320940931263
1756899051.739674,0.5884483257673444,-0.2927320940931263
1756899051.7413042,0.5884483257673444,-0.37679497932449024
1756899051.7472515,0.5884483257673444,-0.36718779244090577
1756899051.7478693,0.5884483257673444,-0.19906202197817785
1756899051.7485,0.5884483257673444,-0.026132658073657725
1756899051.7589989,0.5884483257673444,-0.042945235119930515
1756899051.7596462,0.5884483257673444,-0.2254817859080351
1756899051.7598584,0.5884483257673444,-0.35998240227821743
1756899051.7600572,0.5884483257673444,-0.3023392809767107
1756899051.760254,0.5884483257673444,-0.11980273018860613
1756899051.7604835,0.5884483257673444,-0.018927267910969388
1756899051.7641268,0.5884483257673444,-0.10058835642143722
1756899051.7643776,0.5884483257673444,-0.29033029737223015
1756899051.764695,0.5884483257673444,-0.4440452875095814
1756899051.76692,0.5884483257673444,-0.4704650514394386
1756899051.76872,0.5884483257673444,-0.3791967760453863
1756899051.770742,0.5884483257673444,-0.2807231104886457
1756899051.7726724,0.5884483257673444,-0.2975356875349185
1756899051.774652,0.5884483257673444,-0.45845606783495807
1756899051.776575,0.5884483257673444,-0.6505998055066471
1756899051.7785523,0.5884483257673444,-0.734662690738011
1756899051.7794857,0.8952816651315454,-0.734662690738011
1756899051.803202,0.8952816651315454,-0.71064472352905
1756899051.804609,0.8952816651315454,-0.7514752677842839
1756899051.8164716,0.9262464975444464,-0.7514752677842839
1756899051.8190706,0.9262464975444464,-1.0276818906873368
1756899051.8194735,0.9262464975444464,-1.4744160807740139
1756899051.819809,0.9262464975444464,-1.8442927757920153
1756899051.8201442,0.9262464975444464,-1.9811951888830939
1756899051.8205175,0.9262464975444464,-2.0172221396965355
1756899051.820854,0.9262464975444464,-2.2045622839264323
1756899051.8239467,0.9262464975444464,-2.610465929757875
1756899051.825867,0.9262464975444464,-3.0115659821475265
1756899051.8264437,0.9262464975444464,-3.119646834587851
1756899051.8267896,0.9262464975444464,-2.872261772335552
1756899051.8269892,0.9262464975444464,-2.4615545330623165
1756899051.827211,0.9262464975444464,-2.1301065855786527
1756899051.8274078,0.9262464975444464,-1.9379628479069637
1756899051.827604,0.9262464975444464,-1.7290065331890019
1756899051.8278215,0.9262464975444464,-1.3375136676829356
1756899051.8281183,0.9262464975444464,-0.7802968284350372
1756899051.828832,0.9262464975444464,-0.24949975311699624
1756899051.8296163,0.9262464975444464,0.05552843043681011
1756899051.830084,0.9262464975444464,0.10116256813383626
1756899051.8332255,0.9262464975444464,0.04351944683232955
1756899051.833629,0.9262464975444464,0.029108666506952874
1756899051.833855,0.9262464975444464,0.05793022715770623
1756899051.834053,0.9262464975444464,0.021903276344264533
1756899051.834252,0.9262464975444464,-0.11740093346771002
1756899051.834448,0.9262464975444464,-0.2254817859080351
1756899051.8346446,0.9262464975444464,-0.1486242908393595
1756899051.8354957,0.9262464975444464,0.0723410074830829
1756899051.8376703,0.9262464975444464,0.22365420089953802
1756899051.8396957,0.9262464975444464,0.15400209599355075
1756899051.8432384,0.9262464975444464,-0.023730861352761614
1756899051.843488,0.9262464975444464,-0.07176679577068387
1756899051.8454795,0.9262464975444464,0.05072483699501789
1756899051.8474083,0.9262464975444464,0.1491985025517585
1756899051.8499374,0.9262464975444464,0.04832304027412178
1756899051.8549588,0.7089296737011774,0.04832304027412178
1756899051.8551753,0.7089296737011774,-0.16063327444384004
1756899051.8673952,0.7089296737011774,-0.23508897279161955
1756899051.8676336,0.7089296737011774,-0.11259734002591779
1756899051.867833,0.7089296737011774,0.024305073065160648
1756899051.8680298,0.7089296737011774,-0.011721877748281049
1756899051.8682263,0.7089296737011774,-0.11740093346771002
1756899051.8684232,0.7089296737011774,-0.06456140560799553
1756899051.8686182,0.7089296737011774,0.1828236566443041
1756899051.8688314,0.7089296737011774,0.37496739431599313
1756899051.8784437,0.7089296737011774,0.26448474515477194
1756899051.878683,0.7089296737011774,-0.08377577937516444
1756899051.8788414,0.7089296737011774,-0.3575806055573213
1756899051.8790495,0.7089296737011774,-0.3431698252319446
1756899051.8792102,0.7089296737011774,-0.14141890067667115
1756899051.8793652,0.7089296737011774,-0.03093625151544995
1756899051.8809772,0.7089296737011774,-0.16303507116473617
1756899051.8831322,0.7089296737011774,-0.4104201334170358
1756899051.884863,0.7089296737011774,-0.5088937989737764
1756899051.8867145,0.7089296737011774,-0.3431698252319446
1756899051.8886852,0.7089296737011774,-0.07416859249157999
1756899051.890669,0.7089296737011774,0.01950147962336842
1756899051.8925743,0.7089296737011774,-0.1510260875602556
1756899051.8946335,0.7089296737011774,-0.4080183366961397
1756899051.8965883,0.7089296737011774,-0.5088937989737764
1756899051.900887,0.7089296737011774,-0.39600935309165913
1756899051.9030914,0.7089296737011774,-0.25910694000058065
1756899051.90334,0.7089296737011774,-0.2639105334423729
1756899051.903478,0.45670703877427465,-0.2639105334423729
1756899051.904884,0.45670703877427465,-0.3383662317901524
1756899051.9070292,0.45670703877427465,-0.2783213137677496
1756899051.908504,0.45670703877427465,-0.05255242200351497
1756899051.910271,0.45670703877427465,0.14199311238907017
1756899051.9122171,0.45670703877427465,0.11317155173831682
1756899051.9141855,0.45670703877427465,-0.0765703892124761
1756899051.9163346,0.45670703877427465,-0.20866920886176232
1756899051.918099,0.45670703877427465,-0.1894548350945934
1756899051.92021,0.45670703877427465,-0.1366153072348789
1756899051.9221125,0.45670703877427465,-0.21587459902445064
1756899051.9241197,0.45670703877427465,-0.38159857276628245
1756899051.9262135,0.45670703877427465,-0.45845606783495807
1756899051.928021,0.45670703877427465,-0.3695895891618019
1756899051.9298906,0.45670703877427465,-0.21587459902445064
1756899051.931876,0.45670703877427465,-0.12940991707219057
1756899051.9338596,0.45670703877427465,-0.1318117137930867
1756899051.9379687,0.19336521402637558,-0.1318117137930867
1756899051.9380386,0.19336521402637558,-0.14141890067667115
1756899051.9382226,0.19336521402637558,-0.11740093346771002
1756899051.9397578,0.19336521402637558,-0.10299015314233334
1756899051.941826,0.19336521402637558,-0.1534278842811517
1756899051.9443831,0.19336521402637558,-0.266312330163269
1756899051.9458072,0.19336521402637558,-0.40561653997524355
1756899051.947564,0.19336521402637558,-0.5377153596245298
1756899051.949581,0.19336521402637558,-0.6433944153439588
1756899051.9515529,0.19336521402637558,-0.7034393333663616
1756899051.9537976,0.19336521402637558,-0.6866267563200887
1756899051.9556444,0.19336521402637558,-0.6025638710887248
1756899051.957469,0.19336521402637558,-0.5112955956946725
1756899051.9596057,0.19336521402637558,-0.46085786455585415
1756899051.9617968,0.19336521402637558,-0.4680632547185425
1756899051.9652648,0.19336521402637558,-0.47526864488123083
1756899051.9653575,0.19336521402637558,-0.4248309137424125
1756899051.9671671,0.19336521402637558,-0.3167500613020874
1756899051.9690726,0.19336521402637558,-0.22067819246624287
1756899051.9717512,0.19336521402637558,-0.2422943629543079
1756899051.9730935,0.19336521402637558,-0.36238419899911356
1756899051.9750557,0.19336521402637558,-0.4488488809513736
1756899051.9762003,0.060709056984742826,-0.4488488809513736
1756899051.9772513,0.060709056984742826,-0.3888039629289708
1756899051.9789743,0.060709056984742826,-0.23508897279161955
1756899051.980946,0.060709056984742826,-0.16063327444384004
1756899051.983156,0.060709056984742826,-0.2615087367214768
1756899051.9848058,0.060709056984742826,-0.4440452875095814
1756899051.9870317,0.060709056984742826,-0.5281081727409453
1756899051.9889889,0.060709056984742826,-0.4896794252066075
1756899051.9909923,0.060709056984742826,-0.45845606783495807
1756899051.9954395,0.060709056984742826,-0.5473225465081142
1756899051.995556,0.060709056984742826,-0.6842249595991927
1756899051.9966698,0.060709056984742826,-0.7250555038544266
1756899051.9987538,0.060709056984742826,-0.6457962120648548
1756899052.0012848,0.060709056984742826,-0.5521261399499064
1756899052.0025852,0.060709056984742826,-0.5449207497872182
1756899052.0051494,0.060709056984742826,-0.5785459038797637
1756899052.0081985,0.060709056984742826,-0.5593315301125948
1756899052.0091772,0.060709056984742826,-0.47526864488123083
1756899052.0110009,0.060709056984742826,-0.4032147432543475
1756899052.0124133,0.060709056984742826,-0.393607556370763
1756899052.0144196,0.060709056984742826,-0.4272327104633086
1756899052.014796,-0.015207563391204834,-0.4272327104633086
1756899052.0163095,-0.015207563391204834,-0.48247403504391917
1756899052.0182383,-0.015207563391204834,-0.5521261399499064
1756899052.0202549,-0.015207563391204834,-0.6169746514141015
1756899052.0221906,-0.015207563391204834,-0.626581838297686
1756899052.0242822,-0.015207563391204834,-0.5521261399499064
1756899052.0261624,-0.015207563391204834,-0.4704650514394386
1756899052.028093,-0.015207563391204834,-0.499286612090192
1756899052.0300412,-0.015207563391204834,-0.6313854317394781
1756899052.0330632,-0.015207563391204834,-0.7322608940171149
1756899052.0340486,-0.015207563391204834,-0.6890285530409849
1756899052.0382688,-0.015207563391204834,-0.5785459038797637
1756899052.0401,-0.015207563391204834,-0.5665369202752831
1756899052.0402164,-0.015207563391204834,-0.7250555038544266
1756899052.0418742,-0.015207563391204834,-0.9316100218514923
1756899052.0438542,-0.015207563391204834,-0.9940567365947912
1756899052.045972,-0.015207563391204834,-0.8739669005499856
1756899052.0478504,-0.015207563391204834,-0.7298590972962188
1756899052.049718,-0.015207563391204834,-0.7250555038544266
1756899052.051772,-0.015207563391204834,-0.8667615103872972
1756899052.053627,-0.015207563391204834,-0.9892531431529991
1756899052.0575664,-0.015207563391204834,-0.9508243956186612
1756899052.0577345,-0.015207563391204834,-0.7899040153186216
1756899052.059502,-0.015207563391204834,-0.6842249595991927
1756899052.06148,-0.015207563391204834,-0.7226537071335305
1756899052.0634415,-0.015207563391204834,-0.8163237792484789
1756899052.0640247,-0.15182229275835052,-0.8163237792484789
1756899052.0653992,-0.15182229275835052,-0.818725575969375
1756899052.0674348,-0.15182229275835052,-0.71064472352905
1756899052.0693762,-0.15182229275835052,-0.6217782448558937
1756899052.0714474,-0.15182229275835052,-0.6578051956693355
1756899052.0732694,-0.15182229275835052,-0.7826986251559334
1756899052.0755725,-0.15182229275835052,-0.861957916945505
1756899052.0780797,-0.15182229275835052,-0.8523507300619205
1756899052.079204,-0.15182229275835052,-0.8331363562947517
1756899052.081331,-0.15182229275835052,-0.9123956480843234
1756899052.0832624,-0.15182229275835052,-1.0685124349425708
1756899052.0851202,-0.15182229275835052,-1.1837986775455842
1756899052.0872183,-0.15182229275835052,-1.176593287382896
1756899052.0890567,-0.15182229275835052,-1.0781196218261553
1756899052.0910225,-0.15182229275835052,-1.0012621267574795
1756899052.09315,-0.15182229275835052,-1.0468962644545057
1756899052.0951045,-0.15182229275835052,-1.1741914906619997
1756899052.0970972,-0.15182229275835052,-1.265459766056052
1756899052.097307,-0.250980131098754,-1.265459766056052
1756899052.0991,-0.250980131098754,-1.236638205405299
1756899052.1010437,-0.250980131098754,-1.116548369360493
1756899052.1030035,-0.250980131098754,-1.0252800939664408
1756899052.1050804,-0.250980131098754,-1.0637088415007785
1756899052.107058,-0.250980131098754,-1.2174238316381298
1756899052.1088698,-0.250980131098754,-1.34712085456652
1756899052.112359,-0.250980131098754,-1.3567280414501044
1756899052.1133063,-0.250980131098754,-1.2534507824515715
1756899052.1324196,-0.250980131098754,-1.1237537595231812
1756899052.1325624,-0.250980131098754,-1.0589052480589862
1756899052.1326532,-0.250980131098754,-1.0661106382216747
1756899052.1327226,-0.250980131098754,-1.0925304021515319
1756899052.1328657,-0.250980131098754,-1.0685124349425708
1756899052.132934,-0.250980131098754,-0.9724405661067262
1756899052.1329958,-0.250980131098754,-0.8523507300619205
1756899052.1330707,-0.250980131098754,-0.7826986251559334
1756899052.133263,-0.250980131098754,-0.8067165923648945
1756899052.1333444,-0.250980131098754,-0.8787704939917779
1756899052.1349597,-0.250980131098754,-0.8883776808753623
1756899052.1381693,-0.250980131098754,-0.7875022185977255
1756899052.1382692,-0.250980131098754,-0.6554033989484394
1756899052.140133,-0.250980131098754,-0.6361890251812704
1756899052.149777,-0.3526010811083655,-0.6361890251812704
1756899052.150563,-0.3526010811083655,-0.7706896415514527
1756899052.1507463,-0.3526010811083655,-0.9484225988977651
1756899052.152466,-0.3526010811083655,-1.0300836874082329
1756899052.1525471,-0.3526010811083655,-1.010869313641064
1756899052.1525953,-0.3526010811083655,-1.0012621267574795
1756899052.1526785,-0.3526010811083655,-1.075717825105259
1756899052.1540682,-0.3526010811083655,-1.1501735234530386
1756899052.1562889,-0.3526010811083655,-1.0925304021515319
1756899052.160384,-0.3526010811083655,-0.8883776808753623
1756899052.1606908,-0.3526010811083655,-0.6674123825529199
1756899052.1617637,-0.3526010811083655,-0.5737423104379715
1756899052.164091,-0.3526010811083655,-0.6241800415767899
1756899052.1658132,-0.3526010811083655,-0.7034393333663616
1756899052.167831,-0.3526010811083655,-0.71064472352905
1756899052.1697023,-0.3526010811083655,-0.6674123825529199
1756899052.1719282,-0.3526010811083655,-0.6866267563200887
1756899052.173567,-0.3526010811083655,-0.8427435431783361
1756899052.175739,-0.3526010811083655,-1.1189501660813892
1756899052.1772108,-0.46548197017721377,-1.1189501660813892
1756899052.1777585,-0.46548197017721377,-1.3999603824262346
1756899052.1806312,-0.46548197017721377,-1.5224520151919363
1756899052.1817987,-0.46548197017721377,-1.4071657725889228
1756899052.1835144,-0.46548197017721377,-1.1237537595231812
1756899052.1869588,-0.46548197017721377,-0.861957916945505
1756899052.187788,-0.46548197017721377,-0.7947076087604139
1756899052.1894636,-0.46548197017721377,-0.8931812743171545
1756899052.1936526,-0.46548197017721377,-0.9724405661067262
1756899052.1939662,-0.46548197017721377,-0.8811722907126739
1756899052.1953063,-0.46548197017721377,-0.6650105858320238
1756899052.1973853,-0.46548197017721377,-0.5401171563454259
1756899052.1993363,-0.46548197017721377,-0.6794213661574005
1756899052.2015328,-0.46548197017721377,-1.032485484129129
1756899052.203232,-0.46548197017721377,-1.3591298381710006
1756899052.2053883,-0.46548197017721377,-1.4455945201232605
1756899052.2072058,-0.46548197017721377,-1.2966831234277016
1756899052.209205,-0.46548197017721377,-1.0925304021515319
1756899052.2118912,-0.46548197017721377,-1.0036639234783757
1756899052.2129805,-0.46548197017721377,-1.0252800939664408
1756899052.2159224,-0.585118822681604,-1.0252800939664408
1756899052.2171106,-0.585118822681604,-1.0252800939664408
1756899052.2172704,-0.585118822681604,-0.9147974448052195
1756899052.2208111,-0.585118822681604,-0.7514752677842839
1756899052.220965,-0.585118822681604,-0.6842249595991927
1756899052.2227895,-0.585118822681604,-0.7610824546678683
1756899052.224828,-0.585118822681604,-0.8883776808753623
1756899052.2266924,-0.585118822681604,-0.9340118185723885
1756899052.228744,-0.585118822681604,-0.8787704939917779
1756899052.2333083,-0.585118822681604,-0.8259309661320633
1756899052.2333715,-0.585118822681604,-0.8739669005499856
1756899052.2350442,-0.585118822681604,-0.9772441595485184
1756899052.236729,-0.585118822681604,-1.0396908742918174
1756899052.2409034,-0.585118822681604,-1.0156729070828563
1756899052.2431903,-0.585118822681604,-0.9412172087350767
1756899052.243568,-0.585118822681604,-0.8787704939917779
1756899052.244553,-0.585118822681604,-0.8307345595738556
1756899052.246447,-0.585118822681604,-0.8043147956439983
1756899052.2492852,-0.585118822681604,-0.837939949736544
1756899052.2506845,-0.585118822681604,-0.946020802176869
1756899052.2524235,-0.585118822681604,-1.0829232152679473
1756899052.2544775,-0.585118822681604,-1.1549771168948308
1756899052.256519,-0.585118822681604,-1.1237537595231812
1756899052.2576928,-0.6602789159020093,-1.1237537595231812
1756899052.2583442,-0.6602789159020093,-1.0468962644545057
1756899052.260204,-0.6602789159020093,-1.0300836874082329
1756899052.2622375,-0.6602789159020093,-1.1093429791978047
1756899052.2642362,-0.6602789159020093,-1.241441798847091
1756899052.266188,-0.6602789159020093,-1.3399154644038316
1756899052.269146,-0.6602789159020093,-1.349522651287416
1756899052.27059,-0.6602789159020093,-1.239040002126195
1756899052.2724004,-0.6602789159020093,-1.010869313641064
1756899052.275718,-0.6602789159020093,-0.7658860481096605
1756899052.2864735,-0.6602789159020093,-0.6746177727156082
1756899052.2871337,-0.6602789159020093,-0.7971094054813099
1756899052.2873492,-0.6602789159020093,-0.9940567365947912
1756899052.2895331,-0.6602789159020093,-1.0348872808500251
1756899052.290229,-0.6602789159020093,-0.8211273726902711
1756899052.290459,-0.6602789159020093,-0.5401171563454259
1756899052.2906587,-0.6602789159020093,-0.4896794252066075
1756899052.292098,-0.6602789159020093,-0.775493234993245
1756899052.2930443,-0.6602789159020093,-1.200611254591857
1756899052.295041,-0.6602789159020093,-1.4503981135650528
1756899052.295642,-0.6602789159020093,-1.3831478053799617
1756899052.297828,-0.6602789159020093,-1.1453699300112463
1756899052.298079,-0.7053186721389562,-1.1453699300112463
1756899052.3002615,-0.7053186721389562,-0.9892531431529991
1756899052.3015535,-0.7053186721389562,-1.0252800939664408
1756899052.3038943,-0.7053186721389562,-1.1477717267321426
1756899052.3054848,-0.7053186721389562,-1.1645843037784152
1756899052.3075426,-0.7053186721389562,-1.008467516920168
1756899052.3096638,-0.7053186721389562,-0.7778950317141411
1756899052.3177922,-0.7053186721389562,-0.6361890251812704
1756899052.3180425,-0.7053186721389562,-0.6385908219021665
1756899052.3182404,-0.7053186721389562,-0.7082429268081538
1756899052.318436,-0.7053186721389562,-0.756278861226076
1756899052.3193693,-0.7053186721389562,-0.7826986251559334
1756899052.3212438,-0.7053186721389562,-0.8307345595738556
1756899052.3232222,-0.7053186721389562,-0.902788461200739
1756899052.3251765,-0.7053186721389562,-0.946020802176869
1756899052.3277795,-0.7053186721389562,-0.9244046316888039
1756899052.3320315,-0.7053186721389562,-0.8739669005499856
1756899052.332617,-0.7053186721389562,-0.8715651038290895
1756899052.332968,-0.7053186721389562,-0.9316100218514923
1756899052.33839,-0.6253731048183754,-0.9316100218514923
1756899052.370844,-0.6253731048183754,-0.9868513464321029
1756899052.3710692,-0.6253731048183754,-0.9916549398738951
1756899052.3712656,-0.6253731048183754,-0.9508243956186612
1756899052.3714628,-0.6253731048183754,-0.9123956480843234
1756899052.371659,-0.6253731048183754,-0.8955830710380506
1756899052.3718543,-0.6253731048183754,-0.8931812743171545
1756899052.3720503,-0.6253731048183754,-0.8955830710380506
1756899052.3722763,-0.6253731048183754,-0.8979848677589467
1756899052.372474,-0.6253731048183754,-0.9196010382470118
1756899052.372672,-0.6253731048183754,-0.967636972664934
1756899052.37287,-0.6253731048183754,-1.0252800939664408
1756899052.3730671,-0.6253731048183754,-1.032485484129129
1756899052.375325,-0.6253731048183754,-0.9580297857813496
1756899052.375635,-0.6253731048183754,-0.8475471366201284
1756899052.3771305,-0.44521407987058764,-0.8475471366201284
1756899052.3969626,-0.44521407987058764,-0.8259309661320633
1756899052.3970869,-0.44521407987058764,-0.9556279890604534
1756899052.397467,-0.44521407987058764,-1.138164539848558
1756899052.398365,-0.44521407987058764,-1.1958076611500648
1756899052.398438,-0.44521407987058764,-1.0805214185470513
1756899052.3984823,-0.44521407987058764,-0.9340118185723885
1756899052.398524,-0.44521407987058764,-0.9292082251305962
1756899052.3985658,-0.44521407987058764,-1.075717825105259
1756899052.398608,-0.44521407987058764,-1.2102184414754413
1756899052.3986528,-0.44521407987058764,-1.1934058644291685
1756899052.3987,-0.44521407987058764,-1.0444944677336097
1756899052.399033,-0.44521407987058764,-0.8931812743171545
1756899052.3990796,-0.44521407987058764,-0.8211273726902711
1756899052.399233,-0.44521407987058764,-0.8091183890857906
1756899052.3992853,-0.44521407987058764,-0.7802968284350372
1756899052.3994434,-0.44521407987058764,-0.7178501136917382
1756899052.3994887,-0.44521407987058764,-0.6650105858320238
1756899052.3995297,-0.44521407987058764,-0.6554033989484394
1756899052.3995726,-0.44521407987058764,-0.6962339432036733
1756899052.3996542,-0.44521407987058764,-0.7418680809006993
1756899052.417431,-0.07342496705841475,-0.7418680809006993
1756899052.4233353,-0.07342496705841475,-0.7322608940171149
1756899052.4235327,-0.07342496705841475,-0.6554033989484394
1756899052.4238453,-0.07342496705841475,-0.5977602776469326
1756899052.4239123,-0.07342496705841475,-0.6505998055066471
1756899052.4239712,-0.07342496705841475,-0.7947076087604139
1756899052.4240303,-0.07342496705841475,-0.8979848677589467
1756899052.424087,-0.07342496705841475,-0.8475471366201284
1756899052.4241447,-0.07342496705841475,-0.6866267563200887
1756899052.4242015,-0.07342496705841475,-0.5809477006006598
1756899052.4242773,-0.07342496705841475,-0.6433944153439588
1756899052.4243357,-0.07342496705841475,-0.7995112022022061
1756899052.4243922,-0.07342496705841475,-0.9075920546425312
1756899052.425268,-0.07342496705841475,-0.9099938513634273
1756899052.427175,-0.07342496705841475,-0.8883776808753623
1756899052.429149,-0.07342496705841475,-0.9388154120141806
1756899052.4311106,-0.07342496705841475,-1.0180747038037523
1756899052.438381,-0.07342496705841475,-1.0252800939664408
1756899052.4386852,-0.07342496705841475,-0.9123956480843234
1756899052.4389431,-0.07342496705841475,-0.7730914382723488
1756899052.4393165,-0.07342496705841475,-0.7274573005753227
1756899052.4413135,-0.07342496705841475,-0.7826986251559334
1756899052.443163,-0.07342496705841475,-0.8067165923648945
1756899052.4572804,0.4386911362794959,-0.8067165923648945
1756899052.4641745,0.4386911362794959,-0.7202519104126344
1756899052.4644055,0.4386911362794959,-0.5833494973215559
1756899052.4646206,0.4386911362794959,-0.5353135629036336
1756899052.4648178,0.4386911362794959,-0.6337872284603743
1756899052.4653523,0.4386911362794959,-0.7826986251559334
1756899052.4655542,0.4386911362794959,-0.837939949736544
1756899052.4657507,0.4386911362794959,-0.7586806579469721
1756899052.465946,0.4386911362794959,-0.6241800415767899
1756899052.4661405,0.4386911362794959,-0.5353135629036336
1756899052.4663377,0.4386911362794959,-0.49688481536929585
1756899052.4665368,0.4386911362794959,-0.4440452875095814
1756899052.4667332,0.4386911362794959,-0.36238419899911356
1756899052.4694078,0.4386911362794959,-0.3143482645811913
1756899052.4911122,0.4386911362794959,-0.3575806055573213
1756899052.491358,0.4386911362794959,-0.4656614579976464
1756899052.4915583,0.4386911362794959,-0.5737423104379715
1756899052.491757,0.4386911362794959,-0.6554033989484394
1756899052.4919522,0.4386911362794959,-0.756278861226076
1756899052.492149,0.4386911362794959,-0.9171992415261156
1756899052.492346,0.4386911362794959,-1.0973339955933241
1756899052.492542,0.4386911362794959,-1.2246292218008181
1756899052.4927382,0.4386911362794959,-1.2894777332650134
1756899052.4929345,0.4386911362794959,-1.3951567889844423
1756899052.4931295,0.4386911362794959,-1.6353364610740535
1756899052.4933257,0.4386911362794959,-1.966784408557717
1756899052.4946072,0.4386911362794959,-2.2501964216234582
1756899052.496407,0.4386911362794959,-2.40391141176081
1756899052.497991,0.4955538285286414,-2.40391141176081
1756899052.498318,0.4955538285286414,-2.5240012478056153
1756899052.500171,0.4955538285286414,-2.7593773264534343
1756899052.5020602,0.4955538285286414,-3.119646834587851
1756899052.5039773,0.4955538285286414,-3.4126660345371773
1756899052.5060267,0.4955538285286414,-3.434282205025242
1756899052.5079596,0.4955538285286414,-3.1484683952386048
1756899052.5100293,0.4955538285286414,-2.708939595314616
1756899052.512555,0.4955538285286414,-2.3174467298085495
1756899052.513939,0.4955538285286414,-2.0364365134637046
1756899052.515772,0.4955538285286414,-1.7890514512114049
1756899052.517751,0.4955538285286414,-1.4624070971695333
1756899052.5196824,0.4955538285286414,-1.051699857896298
1756899052.5218022,0.4955538285286414,-0.6890285530409849
1756899052.5236852,0.4955538285286414,-0.5064920022528803
1756899052.525972,0.4955538285286414,-0.48727762848571143
1756899052.5278947,0.4955538285286414,-0.49688481536929585
1756899052.5296023,0.4955538285286414,-0.4344381006259969
1756899052.5327823,0.4955538285286414,-0.32875904490656793
1756899052.5334766,0.4955538285286414,-0.2639105334423729
1756899052.536787,0.4955538285286414,-0.244696159675204
1756899052.5375316,0.4955538285286414,-0.1870530383736973
1756899052.538896,0.4172972520669461,-0.1870530383736973
1756899052.5415184,0.4172972520669461,-0.045347031840826627
1756899052.5417511,0.4172972520669461,0.038715853390537326
1756899052.5433726,0.4172972520669461,-0.08377577937516444
1756899052.5453217,0.4172972520669461,-0.3479734186737369
1756899052.547236,0.4172972520669461,-0.49688481536929585
1756899052.549615,0.4172972520669461,-0.3743931826035941
1756899052.5510638,0.4172972520669461,-0.1318117137930867
1756899052.5532465,0.4172972520669461,-0.07176679577068387
1756899052.5551834,0.4172972520669461,-0.27591951704685347
1756899052.5579176,0.4172972520669461,-0.49688481536929585
1756899052.561092,0.4172972520669461,-0.45605427111406194
1756899052.5612142,0.4172972520669461,-0.1702404613274245
1756899052.5629234,0.4172972520669461,0.05793022715770623
1756899052.564953,0.4172972520669461,0.005090699297991743
1756899052.5671902,0.4172972520669461,-0.23508897279161955
1756899052.5690958,0.4172972520669461,-0.3888039629289708
1756899052.577707,0.4172972520669461,-0.3119464678602952
1756899052.578019,0.4172972520669461,-0.1486242908393595
1756899052.5782363,0.183372018111303,-0.1486242908393595
1756899052.5782416,0.183372018111303,-0.12460632363039835
1756899052.5782983,0.183372018111303,-0.28552670393043794
1756899052.579769,0.183372018111303,-0.4248309137424125
1756899052.5806658,0.183372018111303,-0.3527770121155291
1756899052.5826414,0.183372018111303,-0.15582968100204783
1756899052.5847228,0.183372018111303,-0.07416859249157999
1756899052.5866013,0.183372018111303,-0.2038656154199701
1756899052.5885274,0.183372018111303,-0.36238419899911356
1756899052.5908692,0.183372018111303,-0.287928500651334
1756899052.5927136,0.183372018111303,0.007492496018887856
1756899052.5993931,0.183372018111303,0.19243084352788856
1756899052.599969,0.183372018111303,0.04832304027412178
1756899052.600382,0.183372018111303,-0.27591951704685347
1756899052.6014905,0.183372018111303,-0.40561653997524355
1756899052.6022632,0.183372018111303,-0.2062674121408662
1756899052.604238,0.183372018111303,0.06033202387860234
1756899052.606218,0.183372018111303,0.07954639764577125
1756899052.6081786,0.183372018111303,-0.1366153072348789
1756899052.6101823,0.183372018111303,-0.3239554514647757
1756899052.6122217,0.183372018111303,-0.3383662317901524
1756899052.6141143,0.183372018111303,-0.3143482645811913
1756899052.616152,0.183372018111303,-0.42242911702151636
1756899052.6181204,0.183372018111303,-0.6001620743678288
1756899052.620091,-0.15738188766884864,-0.6001620743678288
1756899052.6219432,-0.15738188766884864,-0.6145728546932054
1756899052.622414,-0.15738188766884864,-0.4080183366961397
1756899052.624343,-0.15738188766884864,-0.19906202197817785
1756899052.6275263,-0.15738188766884864,-0.20866920886176232
1756899052.6288135,-0.15738188766884864,-0.39600935309165913
1756899052.6300168,-0.15738188766884864,-0.49688481536929585
1756899052.6319735,-0.15738188766884864,-0.36478599572000964
1756899052.6370432,-0.15738188766884864,-0.14141890067667115
1756899052.6373389,-0.15738188766884864,-0.08377577937516444
1756899052.639654,-0.15738188766884864,-0.2999374842558146
1756899052.639887,-0.15738188766884864,-0.6409926186230627
1756899052.64167,-0.15738188766884864,-0.8307345595738556
1756899052.643616,-0.15738188766884864,-0.756278861226076
1756899052.6455894,-0.15738188766884864,-0.5377153596245298
1756899052.6475766,-0.15738188766884864,-0.40081294653345134
1756899052.6495972,-0.15738188766884864,-0.44164349078868526
1756899052.654246,-0.15738188766884864,-0.5569297333916987
1756899052.6549954,-0.15738188766884864,-0.5665369202752831
1756899052.655414,-0.15738188766884864,-0.3984111498125552
1756899052.657407,-0.15738188766884864,-0.16783866460652838
1756899052.6579878,-0.3054500862978117,-0.16783866460652838
1756899052.6612098,-0.3054500862978117,-0.07416859249157999
1756899052.6614213,-0.3054500862978117,-0.17744585149011285
1756899052.6632743,-0.3054500862978117,-0.38640216620807466
1756899052.6655288,-0.3054500862978117,-0.5497243432290103
1756899052.6672175,-0.3054500862978117,-0.5929566842051404
1756899052.6695206,-0.3054500862978117,-0.5593315301125948
1756899052.6711867,-0.3054500862978117,-0.5329117661827376
1756899052.673207,-0.3054500862978117,-0.5521261399499064
1756899052.677791,-0.3054500862978117,-0.5857512940424521
1756899052.6781695,-0.3054500862978117,-0.5761441071588675
1756899052.682388,-0.3054500862978117,-0.5040902055319842
1756899052.682617,-0.3054500862978117,-0.4248309137424125
1756899052.6829505,-0.3054500862978117,-0.4032147432543475
1756899052.6849422,-0.3054500862978117,-0.4344381006259969
1756899052.6868763,-0.3054500862978117,-0.4440452875095814
1756899052.6893766,-0.3054500862978117,-0.3791967760453863
1756899052.6908455,-0.3054500862978117,-0.3143482645811913
1756899052.6927495,-0.3054500862978117,-0.35998240227821743
1756899052.6948268,-0.3054500862978117,-0.5064920022528803
1756899052.6976264,-0.3054500862978117,-0.5953584809260365
1756899052.6977215,-0.5454275374977945,-0.5953584809260365
1756899052.6987815,-0.5454275374977945,-0.4848758317648153
1756899052.7006762,-0.5454275374977945,-0.244696159675204
1756899052.7025318,-0.5454275374977945,-0.09098116953785278
1756899052.704581,-0.5454275374977945,-0.1870530383736973
1756899052.7102082,-0.5454275374977945,-0.4656614579976464
1756899052.710447,-0.5454275374977945,-0.71064472352905
1756899052.7106464,-0.5454275374977945,-0.7658860481096605
1756899052.7124157,-0.5454275374977945,-0.6818231628782966
1756899052.73672,-0.5454275374977945,-0.6241800415767899
1756899052.7445793,-0.5338860999620769,-0.6241800415767899
1756899052.746667,-0.5338860999620769,-0.691430349761881
1756899052.7479565,-0.5338860999620769,-0.8115201858066866
1756899052.748173,-0.5338860999620769,-0.84034174645744
1756899052.7483716,-0.5338860999620769,-0.7274573005753227
1756899052.7485683,-0.5338860999620769,-0.5521261399499064
1756899052.748765,-0.5338860999620769,-0.4248309137424125
1756899052.748962,-0.5338860999620769,-0.38159857276628245
1756899052.749157,-0.5338860999620769,-0.38159857276628245
1756899052.7493567,-0.5338860999620769,-0.39120575964986687
1756899052.7495563,-0.5338860999620769,-0.4296345071842047
1756899052.7497532,-0.5338860999620769,-0.5040902055319842
1756899052.7499485,-0.5338860999620769,-0.5521261399499064
1756899052.7501447,-0.5338860999620769,-0.5401171563454259
1756899052.750341,-0.5338860999620769,-0.5377153596245298
1756899052.7505834,-0.5338860999620769,-0.6361890251812704
1756899052.7507813,-0.5338860999620769,-0.7826986251559334
1756899052.750979,-0.5338860999620769,-0.7875022185977255
1756899052.7511764,-0.5338860999620769,-0.5881530907633482
1756899052.752011,-0.5338860999620769,-0.3743931826035941
1756899052.7537642,-0.5338860999620769,-0.3888039629289708
1756899052.7558122,-0.5338860999620769,-0.6097692612514132
1756899052.7576616,-0.5338860999620769,-0.7730914382723488
1756899052.764831,-0.5338860999620769,-0.691430349761881
1756899052.7673006,-0.5338860999620769,-0.5064920022528803
1756899052.7675626,-0.5338860999620769,-0.47767044160212696
1756899052.7677631,-0.5338860999620769,-0.6433944153439588
1756899052.767971,-0.5338860999620769,-0.7971094054813099
1756899052.7696433,-0.5338860999620769,-0.7802968284350372
1756899052.771555,-0.5338860999620769,-0.6866267563200887
1756899052.774814,-0.5338860999620769,-0.6962339432036733
1756899052.775767,-0.5338860999620769,-0.818725575969375
1756899052.7773762,-0.5338860999620769,-0.8907794775962584
1756899052.7782714,-0.5260041426206111,-0.8907794775962584
1756899052.77946,-0.5260041426206111,-0.8235291694111673
1756899052.781371,-0.5260041426206111,-0.7178501136917382
1756899052.7833867,-0.5260041426206111,-0.7226537071335305
1756899052.7852817,-0.5260041426206111,-0.837939949736544
1756899052.7871463,-0.5260041426206111,-0.9484225988977651
1756899052.789106,-0.5260041426206111,-0.9796459562694145
1756899052.7910757,-0.5260041426206111,-0.9484225988977651
1756899052.7932744,-0.5260041426206111,-0.8955830710380506
1756899052.7951484,-0.5260041426206111,-0.8331363562947517
1756899052.796972,-0.5260041426206111,-0.7899040153186216
1756899052.7990258,-0.5260041426206111,-0.8355381530156478
1756899052.8014278,-0.5260041426206111,-1.0060657201992718
1756899052.8028996,-0.5260041426206111,-1.2198256283590259
1756899052.8068871,-0.5260041426206111,-1.3303082775202473
1756899052.80717,-0.5260041426206111,-1.26065617261426
1756899052.8087308,-0.5260041426206111,-1.0949321988724279
1756899052.8109078,-0.5260041426206111,-1.0300836874082329
1756899052.8127103,-0.5260041426206111,-1.1862004742664802
1756899052.8148525,-0.5260041426206111,-1.4576035037277413
1756899052.8167014,-0.5260041426206111,-1.5993095102606119
1756899052.8188431,-0.5260041426206111,-1.4744160807740139
1756899052.8205752,-0.5260041426206111,-1.1717896939411037
1756899052.822847,-0.5260041426206111,-0.9268064284097001
1756899052.8245716,-0.5260041426206111,-0.902788461200739
1756899052.8264005,-0.5260041426206111,-1.0276818906873368
1756899052.8357344,-0.5260041426206111,-1.1237537595231812
1756899052.8358586,-0.5482425222626037,-1.1237537595231812
1756899052.8479774,-0.5482425222626037,-1.0829232152679473
1756899052.848428,-0.5482425222626037,-0.9532261923395573
1756899052.8486557,-0.5482425222626037,-0.8547525267828167
1756899052.848863,-0.5482425222626037,-0.8643597136664012
1756899052.8490834,-0.5482425222626037,-1.010869313641064
1756899052.849387,-0.5482425222626037,-1.2942813267068054
1756899052.8496046,-0.5482425222626037,-1.623327477469573
1756899052.8498416,-0.5482425222626037,-1.8226766053039503
1756899052.850061,-0.5482425222626037,-1.748220906956171
1756899052.8502643,-0.5482425222626037,-1.455201707006845
1756899052.8509216,-0.5482425222626037,-1.203013051312753
1756899052.8520713,-0.5482425222626037,-1.1958076611500648
1756899052.8541653,-0.5482425222626037,-1.3591298381710006
1756899052.8567848,-0.5482425222626037,-1.3831478053799617
1756899052.8581214,-0.6304400773950318,-1.3831478053799617
1756899052.8615956,-0.6304400773950318,-1.0709142316634668
1756899052.89503,-0.6304400773950318,-0.564135123554387
1756899052.895825,-0.6304400773950318,-0.23508897279161955
1756899052.8971353,-0.6304400773950318,-0.3239554514647757
1756899052.8976886,-0.6304400773950318,-0.7154483169708421
1756899052.8980331,-0.6304400773950318,-1.0829232152679473
1756899052.8982377,-0.6304400773950318,-1.1886022709873765
1756899052.8984349,-0.6304400773950318,-1.0877268087097396
1756899052.8986318,-0.6304400773950318,-1.0252800939664408
1756899052.8988285,-0.6304400773950318,-1.1693878972202074
1756899052.899058,-0.6304400773950318,-1.3999603824262346
1756899052.899256,-0.6304400773950318,-1.4744160807740139
1756899052.8994997,-0.6304400773950318,-1.2918795299859094
1756899052.8997734,-0.6304400773950318,-1.01327111036196
1756899052.9002028,-0.6304400773950318,-0.8859758841544662
1756899052.9015431,-0.6304400773950318,-0.9724405661067262
1756899052.901752,-0.6304400773950318,-1.1021375890351164
1756899052.9020064,-0.6304400773950318,-1.0925304021515319
1756899052.9022703,-0.6304400773950318,-0.9892531431529991
1756899052.9023218,-0.7565513948584833,-0.9892531431529991
1756899052.9025252,-0.7565513948584833,-0.9964585333156873
1756899052.9027245,-0.7565513948584833,-1.1958076611500648
1756899052.9036589,-0.7565513948584833,-1.4191747561934034
1756899052.9044216,-0.7565513948584833,-1.4600053004486373
1756899052.9066446,-0.7565513948584833,-1.2918795299859094
1756899052.906862,-0.7565513948584833,-1.1117447759187007
1756899052.9070868,-0.7565513948584833,-1.0829232152679473
1756899052.9090312,-0.7565513948584833,-1.1669861004993114
1756899052.9110022,-0.7565513948584833,-1.1862004742664802
1756899052.913234,-0.7565513948584833,-1.0372890775709214
1756899052.9149058,-0.7565513948584833,-0.8211273726902711
1756899052.919207,-0.7565513948584833,-0.7202519104126344
1756899052.919587,-0.7565513948584833,-0.7899040153186216
1756899052.9211097,-0.7565513948584833,-0.9436190054559729
1756899052.9230056,-0.7565513948584833,-1.0396908742918174
1756899052.925093,-0.7565513948584833,-1.0396908742918174
1756899052.9271584,-0.7565513948584833,-1.0156729070828563
1756899052.9287791,-0.7565513948584833,-1.051699857896298
1756899052.9311612,-0.7565513948584833,-1.138164539848558
1756899052.9327176,-0.7565513948584833,-1.2054148480336493
1756899052.9347246,-0.7565513948584833,-1.2174238316381298
1756899052.9368775,-0.7565513948584833,-1.2174238316381298
1756899052.9377608,-0.7649963491529108,-1.2174238316381298
1756899052.9386148,-0.7649963491529108,-1.2510489857306755
1756899052.9532783,-0.7649963491529108,-1.2918795299859094
1756899052.9573288,-0.7649963491529108,-1.2822723431023249
1756899052.9576955,-0.7649963491529108,-1.2246292218008181
1756899052.957924,-0.7649963491529108,-1.1837986775455842
1756899052.9623425,-0.7649963491529108,-1.1886022709873765
1756899052.9631274,-0.7649963491529108,-1.1982094578709608
1756899052.9641635,-0.7649963491529108,-1.178995084103792
1756899052.9644582,-0.7649963491529108,-1.1669861004993114
1756899052.9646628,-0.7649963491529108,-1.2486471890097794
1756899052.964859,-0.7649963491529108,-1.392754992263546
1756899052.9650557,-0.7649963491529108,-1.455201707006845
1756899052.9652972,-0.7649963491529108,-1.3735406184963772
1756899052.966091,-0.7649963491529108,-1.2966831234277016
1756899052.9664638,-0.7649963491529108,-1.3783442119381695
1756899052.9718497,-0.7649963491529108,-1.5416663889591051
1756899052.972121,-0.7649963491529108,-1.5296574053546246
1756899052.9725866,-0.7649963491529108,-1.2678615627769483
1756899052.974082,-0.7649963491529108,-1.0036639234783757
1756899052.9759724,-0.7649963491529108,-1.0228782972455446
1756899052.9779973,-0.7649963491529108,-1.2750669529396366
1756899052.980107,-0.7649963491529108,-1.387951398821754
1756899052.9806793,-0.6450779981720396,-1.387951398821754
1756899052.982138,-0.6450779981720396,-1.1934058644291685
1756899052.983897,-0.6450779981720396,-0.9340118185723885
1756899052.9857266,-0.6450779981720396,-0.9484225988977651
1756899052.987758,-0.6450779981720396,-1.178995084103792
1756899052.9897268,-0.6450779981720396,-1.2678615627769483
1756899052.9916885,-0.6450779981720396,-1.0565034513380902
1756899052.9985611,-0.6450779981720396,-0.8211273726902711
1756899052.9988203,-0.6450779981720396,-0.9220028349679078
1756899052.999027,-0.6450779981720396,-1.2894777332650134
1756899052.999492,-0.6450779981720396,-1.4840232676575984
1756899053.0028234,-0.6450779981720396,-1.2774687496605328
1756899053.0034168,-0.6450779981720396,-0.967636972664934
1756899053.0101912,-0.6450779981720396,-1.0012621267574795
1756899053.0105662,-0.6450779981720396,-1.3975585857053383
1756899053.010811,-0.6450779981720396,-1.7145957528636253
1756899053.0116522,-0.6450779981720396,-1.6089166971441964
1756899053.01338,-0.6450779981720396,-1.241441798847091
1756899053.015299,-0.6450779981720396,-1.0661106382216747
1756899053.0172896,-0.6450779981720396,-1.2510489857306755
1756899053.017649,-0.22297103268890262,-1.2510489857306755
1756899053.0192194,-0.22297103268890262,-1.5008358447038712
1756899053.0211637,-0.22297103268890262,-1.4672106906113256
1756899053.023137,-0.22297103268890262,-1.1741914906619997
1756899053.0251102,-0.22297103268890262,-0.9652351759440378
1756899053.027818,-0.22297103268890262,-1.049298061175402
1756899053.0290327,-0.22297103268890262,-1.2894777332650134
1756899053.0309997,-0.22297103268890262,-1.3975585857053383
1756899053.046995,-0.22297103268890262,-1.3303082775202473
1756899053.0472994,-0.22297103268890262,-1.2990849201485977
1756899053.0476048,-0.22297103268890262,-1.4455945201232605
1756899053.0480764,-0.22297103268890262,-1.6305328676322612
1756899053.0482898,-0.22297103268890262,-1.6185238840277807
1756899053.0486343,-0.22297103268890262,-1.4047639758680266
1756899053.0490851,-0.22297103268890262,-1.2270310185217141
1756899053.0494287,-0.22297103268890262,-1.301486716869494
1756899053.0506413,-0.22297103268890262,-1.5320592020755206
1756899053.051321,-0.22297103268890262,-1.625729274190469
1756899053.052632,-0.22297103268890262,-1.4479963168441568
1756899053.055259,-0.22297103268890262,-1.1910040677082725
1756899053.0565124,-0.22297103268890262,-1.1525753201739346
1756899053.0580258,0.6605119357464595,-1.1525753201739346
1756899053.0585418,0.6605119357464595,-1.4023621791471306
1756899053.0605326,0.6605119357464595,-1.7266047364681059
1756899053.062482,0.6605119357464595,-1.8202748085830542
1756899053.06445,0.6605119357464595,-1.6401400545158458
1756899053.066412,0.6605119357464595,-1.4095675693098189
1756899053.068387,0.6605119357464595,-1.3615316348918967
1756899053.0703342,0.6605119357464595,-1.517648421750144
1756899053.088535,0.6605119357464595,-1.6929795823755602
1756899053.0895636,0.6605119357464595,-1.6809705987710797
1756899053.0898843,0.6605119357464595,-1.4888268610993907
1756899053.090901,0.6605119357464595,-1.2966831234277016
1756899053.0911107,0.6605119357464595,-1.2462453922888832
1756899053.0913105,0.6605119357464595,-1.3086921070321822
1756899053.0915096,0.6605119357464595,-1.3399154644038316
1756899053.0917232,0.6605119357464595,-1.2726651562187405
1756899053.0922678,0.6605119357464595,-1.176593287382896
1756899053.0971582,1.0456018515723557,-1.176593287382896
1756899053.0989287,1.0456018515723557,-1.159780710336623
1756899053.0992591,1.0456018515723557,-1.2150220349172336
1756899053.0994911,1.0456018515723557,-1.2174238316381298
1756899053.099704,1.0456018515723557,-1.0949321988724279
1756899053.0999165,1.0456018515723557,-0.9316100218514923
1756899053.1001272,1.0456018515723557,-0.8787704939917779
1756899053.1018944,1.0456018515723557,-0.9844495497112068
1756899053.1038718,1.0456018515723557,-1.135762743127662
1756899053.1106446,1.0456018515723557,-1.1837986775455842
1756899053.1109142,1.0456018515723557,-1.1189501660813892
1756899053.1111257,1.0456018515723557,-1.0661106382216747
1756899053.1117213,1.0456018515723557,-1.1429681332903503
1756899053.1135633,1.0456018515723557,-1.3231028873575588
1756899053.1155534,1.0456018515723557,-1.4696124873322218
1756899053.117481,1.0456018515723557,-1.4912286578202867
1756899053.1273303,1.0456018515723557,-1.3951567889844423
1756899053.1274338,1.0456018515723557,-1.2750669529396366
1756899053.1274984,1.0456018515723557,-1.200611254591857
1756899053.1277635,1.0456018515723557,-1.1573789136157269
1756899053.127981,1.0456018515723557,-1.0973339955933241
1756899053.1291254,1.0456018515723557,-1.0204765005246486
1756899053.132413,1.0456018515723557,-0.9436190054559729
1756899053.133392,1.0456018515723557,-0.8763686972708817
1756899053.135105,1.0456018515723557,-0.8283327628529594
1756899053.1373348,1.0456018515723557,-0.8163237792484789
1756899053.1390378,1.0456018515723557,-0.8595561202246089
1756899053.141102,1.0456018515723557,-0.9604315825022457
1756899053.1420832,1.137933351858097,-0.9604315825022457
1756899053.1703303,1.137933351858097,-1.054101654617194
1756899053.170619,1.137933351858097,-1.0781196218261553
1756899053.1708338,1.137933351858097,-1.0589052480589862
1756899053.1710355,1.137933351858097,-1.0877268087097396
1756899053.171403,1.137933351858097,-1.203013051312753
1756899053.1718197,1.137933351858097,-1.3231028873575588
1756899053.1724226,1.137933351858097,-1.3303082775202473
1756899053.175719,1.137933351858097,-1.2198256283590259
1756899053.1772077,0.9459513908981108,-1.2198256283590259
1756899053.1788642,0.9459513908981108,-1.1261555562440775
1756899053.179085,0.9459513908981108,-1.1717896939411037
1756899053.1794646,0.9459513908981108,-1.3231028873575588
1756899053.1801145,0.9459513908981108,-1.4263801463560917
1756899053.1803398,0.9459513908981108,-1.3951567889844423
1756899053.1805742,0.9459513908981108,-1.2894777332650134
1756899053.1807747,0.9459513908981108,-1.2510489857306755
1756899053.1809745,0.9459513908981108,-1.34712085456652
1756899053.1811736,0.9459513908981108,-1.493630454541183
1756899053.1813786,0.9459513908981108,-1.5488717791217934
1756899053.1815755,0.9459513908981108,-1.4576035037277413
1756899053.1817732,0.9459513908981108,-1.3351118709620393
1756899053.1824784,0.9459513908981108,-1.3615316348918967
1756899053.1842546,0.9459513908981108,-1.5873005266561313
1756899053.1862276,0.9459513908981108,-1.899534100372626
1756899053.1883905,0.9459513908981108,-2.134910179020445
1756899053.1902914,0.9459513908981108,-2.2501964216234582
1756899053.1923032,0.9459513908981108,-2.3846970379936407
1756899053.1941645,0.9459513908981108,-2.665707254338486
1756899053.1973472,0.9459513908981108,-3.0812180870535135
1756899053.1982152,0.9459513908981108,-3.4847199361640606
1756899053.2005086,0.9459513908981108,-3.7417121852999444
1756899053.2022069,0.9459513908981108,-3.8089624934850357
1756899053.2039683,0.9459513908981108,-3.7369085918581524
1756899053.2061644,0.9459513908981108,-3.561577431232736
1756899053.2082484,0.9459513908981108,-3.304585182096852
1756899053.2098837,0.9459513908981108,-2.9803426247758766
1756899053.2118485,0.9459513908981108,-2.6080641330369794
1756899053.213857,0.9459513908981108,-2.1877497068801595
1756899053.2157795,0.9459513908981108,-1.7218011430263136
1756899053.217773,0.9459513908981108,-1.2582543758933638
1756899053.2225373,0.9459513908981108,-0.8931812743171545
1756899053.2228887,0.9459513908981108,-0.691430349761881
1756899053.2291758,0.6087162160739705,-0.691430349761881
1756899053.2374513,0.6087162160739705,-0.6289836350185821
1756899053.237743,0.6087162160739705,-0.6313854317394781
1756899053.237973,0.6087162160739705,-0.6361890251812704
1756899053.238212,0.6087162160739705,-0.648198008785751
1756899053.2384615,0.6087162160739705,-0.6818231628782966
1756899053.2387831,0.6087162160739705,-0.7322608940171149
1756899053.238984,0.6087162160739705,-0.7802968284350372
1756899053.239399,0.6087162160739705,-0.818725575969375
1756899053.2398393,0.6087162160739705,-0.8331363562947517
1756899053.2422683,0.6087162160739705,-0.8163237792484789
1756899053.2436922,0.6087162160739705,-0.7851004218768294
1756899053.248344,0.6087162160739705,-0.75387706450518
1756899053.2485824,0.6087162160739705,-0.7298590972962188
1756899053.2505414,0.6087162160739705,-0.7058411300872577
1756899053.252741,0.6087162160739705,-0.7034393333663616
1756899053.2530994,0.6087162160739705,-0.7658860481096605
1756899053.2551432,0.6087162160739705,-0.8763686972708817
1756899053.2575505,0.6087162160739705,-0.9340118185723885
1756899053.259096,0.6087162160739705,-0.8259309661320633
1756899053.259107,0.31708379443973916,-0.8259309661320633
1756899053.261029,0.31708379443973916,-0.5905548874842442
1756899053.2629778,0.31708379443973916,-0.4296345071842047
1756899053.265,0.31708379443973916,-0.5377153596245298
1756899053.2669814,0.31708379443973916,-0.8523507300619205
1756899053.2688885,0.31708379443973916,-1.1021375890351164
1756899053.2708476,0.31708379443973916,-1.075717825105259
1756899053.2728856,0.31708379443973916,-0.8667615103872972
1756899053.2975557,0.15958539684866538,-0.8667615103872972
1756899053.2987642,0.15958539684866538,-0.7586806579469721
1756899053.299097,0.15958539684866538,-0.8955830710380506
1756899053.29976,0.15958539684866538,-1.1525753201739346
1756899053.3000283,0.15958539684866538,-1.2966831234277016
1756899053.301992,0.15958539684866538,-1.239040002126195
1756899053.3023484,0.15958539684866538,-1.0925304021515319
1756899053.3079782,0.15958539684866538,-0.9844495497112068
1756899053.3086145,0.15958539684866538,-0.9196010382470118
1756899053.3088765,0.15958539684866538,-0.8451453398992322
1756899053.3092034,0.15958539684866538,-0.8019129989231022
1756899053.3102052,0.15958539684866538,-0.8499489333410245
1756899053.3104389,0.15958539684866538,-0.9628333792231418
1756899053.31064,0.15958539684866538,-0.9988603300365835
1756899053.3108387,0.15958539684866538,-0.8811722907126739
1756899053.3110366,0.15958539684866538,-0.7298590972962188
1756899053.311234,0.15958539684866538,-0.7154483169708421
1756899053.311432,0.15958539684866538,-0.861957916945505
1756899053.3116295,0.15958539684866538,-1.0180747038037523
1756899053.3118272,0.15958539684866538,-1.0565034513380902
1756899053.3124511,0.15958539684866538,-1.032485484129129
1756899053.3143632,0.15958539684866538,-1.049298061175402
1756899053.3160248,0.15958539684866538,-1.0997357923142201
1756899053.3246312,0.15958539684866538,-1.0829232152679473
1756899053.3248758,0.15958539684866538,-0.9940567365947912
1756899053.3250806,0.15958539684866538,-0.9796459562694145
1756899053.3252814,0.15958539684866538,-1.135762743127662
1756899053.3259468,0.15958539684866538,-1.3615316348918967
1756899053.3282392,0.15958539684866538,-1.428781943076988
1756899053.332075,0.15958539684866538,-1.263057969335156
1756899053.3323102,0.15958539684866538,-1.0348872808500251
1756899053.3338327,0.15958539684866538,-0.9844495497112068
1756899053.337986,0.022460451492898048,-0.9844495497112068
1756899053.3421533,0.022460451492898048,-1.181396880824688
1756899053.3424237,0.022460451492898048,-1.4383891299605722
1756899053.3426363,0.022460451492898048,-1.5224520151919363
1756899053.342841,0.022460451492898048,-1.3639334316127927
1756899053.3435106,0.022460451492898048,-1.0973339955933241
1756899053.346095,0.022460451492898048,-0.9436190054559729
1756899053.3478217,0.022460451492898048,-1.0228782972455446
1756899053.3498335,0.022460451492898048,-1.2318346119635066
1756899053.351628,0.022460451492898048,-1.3519244480083121
1756899053.3533926,0.022460451492898048,-1.2582543758933638
1756899053.3781395,-0.17863502264315798,-1.2582543758933638
1756899053.3826523,-0.17863502264315798,-1.0565034513380902
1756899053.383005,-0.17863502264315798,-0.967636972664934
1756899053.3832138,-0.17863502264315798,-1.0949321988724279
1756899053.3834114,-0.17863502264315798,-1.3110939037530782
1756899053.3836095,-0.17863502264315798,-1.4167729594725074
1756899053.3838277,-0.17863502264315798,-1.366335228333689
1756899053.3840256,-0.17863502264315798,-1.265459766056052
1756899053.384223,-0.17863502264315798,-1.2342364086844027
1756899053.38477,-0.17863502264315798,-1.2534507824515715
1756899053.3850026,-0.17863502264315798,-1.2438435955679872
1756899053.3852656,-0.17863502264315798,-1.178995084103792
1756899053.3860862,-0.17863502264315798,-1.1261555562440775
1756899053.3865583,-0.17863502264315798,-1.1285573529649735
1756899053.3867612,-0.17863502264315798,-1.1525753201739346
1756899053.387005,-0.17863502264315798,-1.1429681332903503
1756899053.3872244,-0.17863502264315798,-1.114146572639597
1756899053.387422,-0.17863502264315798,-1.1333609464067658
1756899053.388752,-0.17863502264315798,-1.2486471890097794
1756899053.390756,-0.17863502264315798,-1.4023621791471306
1756899053.3931575,-0.17863502264315798,-1.4888268610993907
1756899053.3951252,-0.17863502264315798,-1.4383891299605722
1756899053.3975544,-0.17863502264315798,-1.3134957004739745
1756899053.398687,-0.17863502264315798,-1.236638205405299
1756899053.4006703,-0.17863502264315798,-1.2726651562187405
1756899053.4026098,-0.17863502264315798,-1.3399154644038316
1756899053.4102418,-0.17863502264315798,-1.3231028873575588
1756899053.410592,-0.17863502264315798,-1.2078166447545453
1756899053.411023,-0.17863502264315798,-1.0973339955933241
1756899053.4111023,-0.17863502264315798,-1.1333609464067658
1756899053.412216,-0.17863502264315798,-1.2942813267068054
1756899053.414166,-0.17863502264315798,-1.4143711627516111
1756899053.4161184,-0.17863502264315798,-1.3711388217754812
1756899053.4179204,-0.43789511948208376,-1.3711388217754812
1756899053.4180932,-0.43789511948208376,-1.1934058644291685
1756899053.4202597,-0.43789511948208376,-1.0228782972455446
1756899053.4230585,-0.43789511948208376,-0.9556279890604534
1756899053.4241068,-0.43789511948208376,-0.967636972664934
1756899053.426068,-0.43789511948208376,-0.9820477529903107
1756899053.4279768,-0.43789511948208376,-0.9556279890604534
1756899053.4299672,-0.43789511948208376,-0.8931812743171545
1756899053.4409966,-0.43789511948208376,-0.8043147956439983
1756899053.4410934,-0.43789511948208376,-0.71064472352905
1756899053.4411564,-0.43789511948208376,-0.669814179273816
1756899053.441219,-0.43789511948208376,-0.7418680809006993
1756899053.4412808,-0.43789511948208376,-0.8907794775962584
1756899053.441717,-0.43789511948208376,-1.01327111036196
1756899053.443712,-0.43789511948208376,-1.0444944677336097
1756899053.446265,-0.43789511948208376,-1.0396908742918174
1756899053.447677,-0.43789511948208376,-1.0973339955933241
1756899053.4498262,-0.43789511948208376,-1.2150220349172336
1756899053.4516966,-0.43789511948208376,-1.3182992939157667
1756899053.4537692,-0.43789511948208376,-1.3615316348918967
1756899053.455653,-0.43789511948208376,-1.39035319554265
1756899053.4576614,-0.43789511948208376,-1.4455945201232605
1756899053.4596586,-0.43789511948208376,-1.5080412348665595
1756899053.4604018,-0.6467669890309251,-1.5080412348665595
1756899053.4616566,-0.6467669890309251,-1.5368627955173129
1756899053.4636848,-0.6467669890309251,-1.5344609987964168
1756899053.4656982,-0.6467669890309251,-1.5320592020755206
1756899053.467502,-0.6467669890309251,-1.493630454541183
1756899053.469448,-0.6467669890309251,-1.3783442119381695
1756899053.4725344,-0.6467669890309251,-1.2294328152426104
1756899053.4746103,-0.6467669890309251,-1.1862004742664802
1756899053.475227,-0.6467669890309251,-1.3086921070321822
1756899053.4840634,-0.6467669890309251,-1.4576035037277413
1756899053.484349,-0.6467669890309251,-1.4407909266814685
1756899053.4849484,-0.6467669890309251,-1.2966831234277016
1756899053.4851477,-0.6467669890309251,-1.2678615627769483
1756899053.485269,-0.6467669890309251,-1.4840232676575984
1756899053.4869986,-0.6467669890309251,-1.7890514512114049
1756899053.4890032,-0.6467669890309251,-1.8875251167681455
1756899053.4909997,-0.6467669890309251,-1.7218011430263136
1756899053.4929144,-0.6467669890309251,-1.5152466250292478
1756899053.4952347,-0.6467669890309251,-1.5032376414247672
1756899053.496948,-0.6467669890309251,-1.6593544282830146
1756899053.4990475,-0.6467669890309251,-1.772238874165132
1756899053.5008192,-0.6467669890309251,-1.7049885659800408
1756899053.5018392,-0.8578908463916138,-1.7049885659800408
1756899053.5032556,-0.8578908463916138,-1.5536753725635857
1756899053.5046823,-0.8578908463916138,-1.4768178774949101
1756899053.5097926,-0.8578908463916138,-1.496032251262079
1756899053.510051,-0.8578908463916138,-1.5104430315874557
1756899053.5107784,-0.8578908463916138,-1.4407909266814685
1756899053.5129368,-0.8578908463916138,-1.3591298381710006
1756899053.5166986,-0.8578908463916138,-1.3855496021008578
1756899053.5170429,-0.8578908463916138,-1.5368627955173129
1756899053.5194707,-0.8578908463916138,-1.6809705987710797
1756899053.520451,-0.8578908463916138,-1.6713634118874952
1756899053.522608,-0.8578908463916138,-1.5080412348665595
1756899053.5246086,-0.8578908463916138,-1.3423172611247278
1756899053.526543,-0.8578908463916138,-1.34712085456652
1756899053.5283008,-0.8578908463916138,-1.5248538119128323
1756899053.530348,-0.8578908463916138,-1.7145957528636253
1756899053.5322387,-0.8578908463916138,-1.7314083299098981
1756899053.5343864,-0.8578908463916138,-1.5560771692844817
1756899053.5371046,-0.8578908463916138,-1.3567280414501044
1756899053.5383456,-0.8578908463916138,-1.3182992939157667
1756899053.538576,-0.9845651608080271,-1.3182992939157667
1756899053.5400696,-0.9845651608080271,-1.4479963168441568
1756899053.5420597,-0.9845651608080271,-1.5680861528889625
1756899053.5441744,-0.9845651608080271,-1.5320592020755206
1756899053.5484974,-0.9845651608080271,-1.3735406184963772
1756899053.5486362,-0.9845651608080271,-1.2558525791724677
1756899053.5498848,-0.9845651608080271,-1.2558525791724677
1756899053.5519116,-0.9845651608080271,-1.2822723431023249
1756899053.5539596,-0.9845651608080271,-1.2078166447545453
1756899053.555796,-0.9845651608080271,-1.073316028384363
1756899053.5578544,-0.9845651608080271,-1.054101654617194
1756899053.5597644,-0.9845651608080271,-1.1910040677082725
1756899053.561699,-0.9845651608080271,-1.3110939037530782
1756899053.5649722,-0.9845651608080271,-1.236638205405299
1756899053.5680354,-0.9845651608080271,-1.0468962644545057
1756899053.568718,-0.9845651608080271,-1.0156729070828563
1756899053.5696108,-0.9845651608080271,-1.2582543758933638
1756899053.5715468,-0.9845651608080271,-1.558478966005378
1756899053.5735035,-0.9845651608080271,-1.6041131037024041
1756899053.575784,-0.9845651608080271,-1.3831478053799617
1756899053.5774257,-0.9845651608080271,-1.1862004742664802
1756899053.580474,-0.9845651608080271,-1.2438435955679872
1756899053.5825322,-0.9845651608080271,-1.4383891299605722
1756899053.5835512,-0.9845651608080271,-1.4864250643784946
1756899053.5853217,-0.9845651608080271,-1.3086921070321822
1756899053.5868456,-1.0594437555519514,-1.3086921070321822
1756899053.587272,-1.0594437555519514,-1.1285573529649735
1756899053.589342,-1.0594437555519514,-1.1645843037784152
1756899053.591342,-1.0594437555519514,-1.34712085456652
1756899053.5936816,-1.0594437555519514,-1.4383891299605722
1756899053.6228626,-1.0217229597035082,-1.4383891299605722
1756899053.6234248,-1.0217229597035082,-1.3158974971948705
1756899053.6245568,-1.0217229597035082,-1.1261555562440775
1756899053.6305766,-1.0217229597035082,-1.0781196218261553
1756899053.6308846,-1.0217229597035082,-1.1837986775455842
1756899053.6319098,-1.0217229597035082,-1.2750669529396366
1756899053.634739,-1.0217229597035082,-1.2222274250799219
1756899053.639238,-1.0217229597035082,-1.0781196218261553
1756899053.6395426,-1.0217229597035082,-0.9940567365947912
1756899053.640597,-1.0217229597035082,-1.0348872808500251
1756899053.640935,-1.0217229597035082,-1.114146572639597
1756899053.642147,-1.0217229597035082,-1.1309591496858697
1756899053.6434703,-1.0217229597035082,-1.073316028384363
1756899053.6435344,-1.0217229597035082,-1.032485484129129
1756899053.643588,-1.0217229597035082,-1.0781196218261553
1756899053.6489775,-1.0217229597035082,-1.2174238316381298
1756899053.649771,-1.0217229597035082,-1.39035319554265
1756899053.6501873,-1.0217229597035082,-1.5248538119128323
1756899053.6502757,-1.0217229597035082,-1.5704879496098585
1756899053.6507237,-1.0217229597035082,-1.5032376414247672
1756899053.6509457,-1.0217229597035082,-1.392754992263546
1756899053.6510122,-1.0217229597035082,-1.3303082775202473
1756899053.6510751,-1.0217229597035082,-1.3567280414501044
1756899053.6511552,-1.0217229597035082,-1.4023621791471306
1756899053.6512182,-1.0217229597035082,-1.3639334316127927
1756899053.6512797,-1.0217229597035082,-1.2342364086844027
1756899053.651398,-1.0217229597035082,-1.1093429791978047
1756899053.6514626,-1.0217229597035082,-1.0637088415007785
1756899053.6515248,-1.0217229597035082,-1.0709142316634668
1756899053.6516051,-1.0217229597035082,-1.0901286054306358
1756899053.652103,-1.0217229597035082,-1.1525753201739346
1756899053.6541512,-1.0217229597035082,-1.3231028873575588
1756899053.6555736,-1.091534581870776,-1.3231028873575588
1756899053.6560624,-1.091534581870776,-1.5272556086337286
1756899053.6580365,-1.091534581870776,-1.5945059168188196
1756899053.6600838,-1.091534581870776,-1.4455945201232605
1756899053.6620245,-1.091534581870776,-1.2246292218008181
1756899053.6640716,-1.091534581870776,-1.1333609464067658
1756899053.667494,-1.091534581870776,-1.1837986775455842
1756899053.6679652,-1.091534581870776,-1.2174238316381298
1756899053.6703074,-1.091534581870776,-1.135762743127662
1756899053.6719785,-1.091534581870776,-0.9988603300365835
1756899053.6742258,-1.091534581870776,-0.9171992415261156
1756899053.686112,-1.091534581870776,-0.902788461200739
1756899053.6863778,-1.091534581870776,-0.9171992415261156
1756899053.686506,-1.091534581870776,-0.9892531431529991
1756899053.6866243,-1.091534581870776,-1.200611254591857
1756899053.686832,-1.091534581870776,-1.493630454541183
1756899053.6869538,-1.091534581870776,-1.647345444678534
1756899053.687676,-1.091534581870776,-1.5320592020755206
1756899053.6905055,-1.091534581870776,-1.2726651562187405
1756899053.6914062,-1.091534581870776,-1.1189501660813892
1756899053.6945684,-1.091534581870776,-1.181396880824688
1756899053.6949098,-0.9474073619125459,-1.181396880824688
1756899053.6953404,-0.9474073619125459,-1.3158974971948705
1756899053.6974063,-0.9474073619125459,-1.3327100742411433
1756899053.699289,-0.9474073619125459,-1.2222274250799219
1756899053.7015722,-0.9474073619125459,-1.1117447759187007
1756899053.7032063,-0.9474073619125459,-1.0997357923142201
1756899053.705505,-0.9474073619125459,-1.1501735234530386
1756899053.7078197,-0.9474073619125459,-1.2150220349172336
1756899053.7093058,-0.9474073619125459,-1.284674139823221
1756899053.7116318,-0.9474073619125459,-1.3567280414501044
1756899053.713267,-0.9474073619125459,-1.3735406184963772
1756899053.717836,-0.9474073619125459,-1.2726651562187405
1756899053.7179215,-0.9474073619125459,-1.0805214185470513
1756899053.71903,-0.9474073619125459,-0.9436190054559729
1756899053.7209127,-0.9474073619125459,-0.9724405661067262
1756899053.7232518,-0.9474073619125459,-1.1261555562440775
1756899053.724814,-0.9474073619125459,-1.2798705463814288
1756899053.7267845,-0.9474073619125459,-1.34712085456652
1756899053.7288406,-0.9474073619125459,-1.366335228333689
1756899053.7307563,-0.9474073619125459,-1.4239783496351957
1756899053.732846,-0.9474073619125459,-1.5416663889591051
1756899053.7348084,-0.9474073619125459,-1.6689616151665991
1756899053.7350152,-0.09253167614955708,-1.6689616151665991
1756899053.7385595,-0.09253167614955708,-1.7626316872815475
1756899053.7388232,-0.09253167614955708,-1.7962568413740931
1756899053.741372,-0.09253167614955708,-1.7890514512114049
1756899053.742851,-0.09253167614955708,-1.7242029397472096
1756899053.7447486,-0.09253167614955708,-1.5897023233770273
1756899053.7468312,-0.09253167614955708,-1.4215765529142994
1756899053.7486396,-0.09253167614955708,-1.2798705463814288
1756899053.7506075,-0.09253167614955708,-1.2222274250799219
1756899053.7550223,-0.09253167614955708,-1.236638205405299
1756899053.7551837,-0.09253167614955708,-1.2582543758933638
1756899053.756454,-0.09253167614955708,-1.2486471890097794
1756899053.7596076,-0.09253167614955708,-1.236638205405299
1756899053.7623715,-0.09253167614955708,-1.2702633594978443
1756899053.7624743,-0.09253167614955708,-1.3639334316127927
1756899053.764267,-0.09253167614955708,-1.4984340479829752
1756899053.7661076,-0.09253167614955708,-1.6161220873068847
1756899053.768167,-0.09253167614955708,-1.6545508348412223
1756899053.770049,-0.09253167614955708,-1.6065149004233001
1756899053.772085,-0.09253167614955708,-1.5080412348665595
1756899053.7739916,-0.09253167614955708,-1.4215765529142994
1756899053.7748487,0.6841578077708567,-1.4215765529142994
1756899053.7760024,0.6841578077708567,-1.3831478053799617
1756899053.7779174,0.6841578077708567,-1.368737025054585
1756899053.780022,0.6841578077708567,-1.306290310311286
1756899053.7819965,0.6841578077708567,-1.159780710336623
1756899053.7854178,0.6841578077708567,-0.9820477529903107
1756899053.786549,0.6841578077708567,-0.8547525267828167
1756899053.7956176,0.6841578077708567,-0.8115201858066866
1756899053.7958398,0.6841578077708567,-0.8451453398992322
1756899053.795993,0.6841578077708567,-0.9099938513634273
1756899053.79615,0.6841578077708567,-0.9844495497112068
1756899053.7962704,0.6841578077708567,-1.049298061175402
1756899053.7977786,0.6841578077708567,-1.0613070447798825
1756899053.7996492,0.6841578077708567,-1.0228782972455446
1756899053.8015444,0.6841578077708567,-0.9988603300365835
1756899053.8044448,0.6841578077708567,-1.0805214185470513
1756899053.8054686,0.6841578077708567,-1.263057969335156
1756899053.808837,0.6841578077708567,-1.4215765529142994
1756899053.809382,0.6841578077708567,-1.43358553651878
1756899053.8113253,0.6841578077708567,-1.3303082775202473
1756899053.813342,0.6841578077708567,-1.265459766056052
1756899053.815851,0.6841578077708567,-1.3567280414501044
1756899053.8164127,1.327100328053274,-1.3567280414501044
1756899053.8190725,1.327100328053274,-1.5440681856800011
1756899053.819347,1.327100328053274,-1.644943647957638
1756899053.8233197,1.327100328053274,-1.5728897463307545
1756899053.8237906,1.327100328053274,-1.4047639758680266
1756899053.82532,1.327100328053274,-1.284674139823221
1756899053.8274467,1.327100328053274,-1.2894777332650134
1756899053.8293066,1.327100328053274,-1.3543262447292084
1756899053.8311307,1.327100328053274,-1.3759424152172732
1756899053.8331146,1.327100328053274,-1.3351118709620393
1756899053.8350384,1.327100328053274,-1.284674139823221
1756899053.8370302,1.327100328053274,-1.265459766056052
1756899053.8389094,1.327100328053274,-1.2798705463814288
1756899053.8409524,1.327100328053274,-1.2702633594978443
1756899053.843001,1.327100328053274,-1.1741914906619997
1756899053.8451824,1.327100328053274,-0.9964585333156873
1756899053.8486457,1.327100328053274,-0.837939949736544
1756899053.849129,1.327100328053274,-0.8091183890857906
1756899053.8518996,1.327100328053274,-0.9292082251305962
1756899053.8528895,1.327100328053274,-1.0853250119888436
1756899053.8548918,1.327100328053274,-1.138164539848558
1756899053.856759,1.327100328053274,-1.0877268087097396
1756899053.858819,1.327100328053274,-1.0709142316634668
1756899053.8624291,1.5218972737780696,-1.0709142316634668
1756899053.862444,1.5218972737780696,-1.2102184414754413
1756899053.862855,1.5218972737780696,-1.4624070971695333
1756899053.868241,1.5218972737780696,-1.685774192212872
1756899053.873557,1.5218972737780696,-1.7818460610487163
1756899053.873611,1.5218972737780696,-1.793855044653197
1756899053.873655,1.5218972737780696,-1.8034622315367814
1756899053.8736985,1.5218972737780696,-1.837087385629327
1756899053.8783937,1.5218972737780696,-1.899534100372626
1756899053.8784692,1.5218972737780696,-2.0388383101846004
1756899053.878528,1.5218972737780696,-2.3126431363667574
1756899053.880417,1.5218972737780696,-2.6777162379429664
1756899053.8824365,1.5218972737780696,-2.985146218217669
1756899053.884528,1.5218972737780696,-3.131655818192332
1756899053.8966017,1.3361082793006636,-3.131655818192332
1756899053.89663,1.3361082793006636,-3.184495346052046
1756899053.8979294,1.3361082793006636,-3.2925761984923714
1756899053.898077,1.3361082793006636,-3.4895235296058527
1756899053.8982184,1.3361082793006636,-3.621622349255139
1756899053.898342,1.3361082793006636,-3.532755870581983
1756899053.89846,1.3361082793006636,-3.2349330771908646
1756899053.8985784,1.3361082793006636,-2.8914761461027205
1756899053.8998425,1.3361082793006636,-2.5840461658280183
1756899053.9018712,1.3361082793006636,-2.257401811786147
1756899053.922154,1.3361082793006636,-1.8538999626755999
1756899053.9239504,1.3361082793006636,-1.4576035037277413
1756899053.9243102,1.3361082793006636,-1.2270310185217141
1756899053.9245646,1.3361082793006636,-1.1862004742664802
1756899053.9263482,1.3361082793006636,-1.181396880824688
1756899053.926816,1.3361082793006636,-1.0685124349425708
1756899053.9270153,1.3361082793006636,-0.9003866644798428
1756899053.9276726,1.3361082793006636,-0.8475471366201284
1756899053.927874,1.3361082793006636,-0.9580297857813496
1756899053.9280798,1.3361082793006636,-1.1237537595231812
1756899053.9282758,1.3361082793006636,-1.1910040677082725
1756899053.92848,1.3361082793006636,-1.1573789136157269
1756899053.9287124,1.3361082793006636,-1.1069411824769086
1756899053.9297423,1.3361082793006636,-1.0805214185470513
1756899053.9317665,1.3361082793006636,-1.0420926710127134
1756899053.933531,1.3361082793006636,-0.9700387693858301
1756899053.9350288,0.8660058235775299,-0.9700387693858301
1756899053.9356017,0.8660058235775299,-0.9123956480843234
1756899053.9375248,0.8660058235775299,-0.9171992415261156
1756899053.9414732,0.8660058235775299,-0.9364136152932845
1756899053.941736,0.8660058235775299,-0.8499489333410245
1756899053.943703,0.8660058235775299,-0.6626087891111276
1756899053.9452343,0.8660058235775299,-0.5377153596245298
1756899053.94779,0.8660058235775299,-0.6457962120648548
1756899053.9509182,0.8660058235775299,-0.9412172087350767
1756899053.9518032,0.8660058235775299,-1.1525753201739346
1756899053.9531424,0.8660058235775299,-1.0589052480589862
1756899053.9553442,0.8660058235775299,-0.7658860481096605
1756899053.9570131,0.8660058235775299,-0.6097692612514132
1756899053.9745302,0.8660058235775299,-0.7778950317141411
1756899053.975063,0.8660058235775299,-1.0829232152679473
1756899053.9752665,0.8660058235775299,-1.1501735234530386
1756899053.9754653,0.8660058235775299,-0.8907794775962584
1756899053.9755392,0.4431951119031906,-0.8907794775962584
1756899053.975663,0.4431951119031906,-0.5881530907633482
1756899053.9758613,0.4431951119031906,-0.5689387169961793
1756899053.9760587,0.4431951119031906,-0.8043147956439983
1756899053.976258,0.4431951119031906,-0.9916549398738951
1756899053.9764547,0.4431951119031906,-0.9171992415261156
1756899053.976652,0.4431951119031906,-0.71064472352905
1756899053.9787748,0.4431951119031906,-0.6313854317394781
1756899053.980598,0.4431951119031906,-0.7442698776215955
1756899053.9826057,0.4431951119031906,-0.9123956480843234
1756899053.9849763,0.4431951119031906,-0.9940567365947912
1756899053.9868257,0.4431951119031906,-0.9916549398738951
1756899053.9893706,0.4431951119031906,-0.9580297857813496
1756899053.9905248,0.4431951119031906,-0.8907794775962584
1756899053.9937716,0.4431951119031906,-0.7947076087604139
1756899053.9943397,0.4431951119031906,-0.7130465202499461
1756899053.9965856,0.4431951119031906,-0.691430349761881
1756899053.998608,0.4431951119031906,-0.6866267563200887
1756899054.0134864,0.4431951119031906,-0.6241800415767899
1756899054.0137134,0.4431951119031906,-0.5353135629036336
1756899054.013962,0.4431951119031906,-0.5473225465081142
1756899054.0141602,0.4431951119031906,-0.6818231628782966
1756899054.0146372,0.4431951119031906,-0.8355381530156478
1756899054.014841,0.4431951119031906,-0.8763686972708817
1756899054.0150385,0.4431951119031906,-0.8427435431783361
1756899054.0152345,0.4431951119031906,-0.8427435431783361
1756899054.0159504,0.4431951119031906,-0.861957916945505
1756899054.0162532,0.17717905162872277,-0.861957916945505
1756899054.017942,0.17717905162872277,-0.8115201858066866
1756899054.019892,0.17717905162872277,-0.6890285530409849
1756899054.0220332,0.17717905162872277,-0.6049656678096209
1756899054.0252466,0.17717905162872277,-0.6193764481349976
1756899054.0257852,0.17717905162872277,-0.6337872284603743
1756899054.0277536,0.17717905162872277,-0.5281081727409453
1756899054.0297866,0.17717905162872277,-0.36718779244090577
1756899054.0317304,0.17717905162872277,-0.32875904490656793
1756899054.0365016,0.17717905162872277,-0.45845606783495807
1756899054.0371106,0.17717905162872277,-0.5977602776469326
1756899054.0375695,0.17717905162872277,-0.6025638710887248
1756899054.0395434,0.17717905162872277,-0.5185009858573609
1756899054.041494,0.17717905162872277,-0.5040902055319842
1756899054.0434804,0.17717905162872277,-0.5833494973215559
1756899054.0455427,0.17717905162872277,-0.6241800415767899
1756899054.0475664,0.17717905162872277,-0.5521261399499064
1756899054.0494013,0.17717905162872277,-0.4440452875095814
1756899054.05135,0.17717905162872277,-0.4344381006259969
1756899054.0533435,0.17717905162872277,-0.5160991891364648
1756899054.0552988,0.17717905162872277,-0.5761441071588675
1756899054.0553007,-0.05086990163038117,-0.5761441071588675
1756899054.0572867,-0.05086990163038117,-0.5545279366708026
1756899054.0592487,-0.05086990163038117,-0.5233045792991531
1756899054.0612867,-0.05086990163038117,-0.5809477006006598
1756899054.063251,-0.05086990163038117,-0.7034393333663616
1756899054.0651908,-0.05086990163038117,-0.7634842513887644
1756899054.0673585,-0.05086990163038117,-0.6890285530409849
