1756899689.1937253,-1121
1756899689.195658,-1119
1756899689.1977468,-1104
1756899689.1998596,-1076
1756899689.201764,-1045
1756899689.2037137,-1026
1756899689.206175,-1024
1756899689.208393,-1025
1756899689.2103956,-1011
1756899689.212091,-998
1756899689.213555,-1019
1756899689.215515,-1091
1756899689.2175326,-1184
1756899689.2194872,-1248
1756899689.2214222,-1267
1756899689.2234097,-1274
1756899689.2253814,-1308
1756899689.2273417,-1368
1756899689.2292771,-1415
1756899689.2312605,-1419
1756899689.2331998,-1396
1756899689.2351336,-1386
1756899689.23718,-1407
1756899689.239095,-1444
1756899689.2410944,-1477
1756899689.2431,-1504
1756899689.2449887,-1543
1756899689.2470012,-1598
1756899689.2489295,-1656
1756899689.2508848,-1701
1756899689.2530496,-1730
1756899689.2548926,-1751
1756899689.256775,-1776
1756899689.258782,-1803
1756899689.2607512,-1822
1756899689.2628796,-1831
1756899689.264689,-1834
1756899689.266648,-1837
1756899689.2685957,-1841
1756899689.2705784,-1849
1756899689.2725108,-1870
1756899689.2744744,-1915
1756899689.2764676,-1968
1756899689.2784045,-1999
1756899689.2803798,-1984
1756899689.2823272,-1940
1756899689.284307,-1912
1756899689.286243,-1927
1756899689.2882342,-1964
1756899689.2901783,-1976
1756899689.2922049,-1946
1756899689.2941341,-1904
1756899689.2961378,-1889
1756899689.2980006,-1903
1756899689.300027,-1913
1756899689.3020358,-1896
1756899689.303892,-1862
1756899689.306491,-1844
1756899689.3084843,-1850
1756899689.310322,-1856
1756899689.3122993,-1839
1756899689.3148654,-1814
1756899689.3159943,-1806
1756899689.3177452,-1821
1756899689.319701,-1827
1756899689.3216302,-1800
1756899689.3236282,-1749
1756899689.3255973,-1712
1756899689.3275185,-1705
1756899689.3295677,-1699
1756899689.3314624,-1666
1756899689.3334126,-1620
1756899689.3354502,-1599
1756899689.3373547,-1622
1756899689.3393097,-1660
1756899689.3413277,-1675
1756899689.3432822,-1663
1756899689.345524,-1651
1756899689.3471751,-1657
1756899689.3491795,-1663
1756899689.351101,-1647
1756899689.3531048,-1615
1756899689.3550444,-1591
1756899689.3569949,-1588
1756899689.3590002,-1592
1756899689.3609383,-1584
1756899689.3628795,-1572
1756899689.3649235,-1577
1756899689.3668606,-1602
1756899689.368794,-1623
1756899689.3707876,-1619
1756899689.3727593,-1594
1756899689.3746789,-1574
1756899689.3767035,-1574
1756899689.3786507,-1588
1756899689.3805752,-1600
1756899689.3825765,-1607
1756899689.384561,-1621
1756899689.3864794,-1651
1756899689.3884768,-1690
1756899689.3904374,-1717
1756899689.392816,-1714
1756899689.394333,-1686
1756899689.3963568,-1646
1756899689.3982513,-1609
1756899689.4002604,-1581
1756899689.402233,-1558
1756899689.4041755,-1537
1756899689.406171,-1518
1756899689.4083693,-1510
1756899689.409985,-1519
1756899689.4120512,-1539
1756899689.4140253,-1561
1756899689.415951,-1578
1756899689.4179804,-1585
1756899689.4198754,-1577
1756899689.4218204,-1549
1756899689.4238052,-1506
1756899689.4257793,-1470
1756899689.4277217,-1461
1756899689.4298167,-1478
1756899689.431669,-1496
1756899689.4336195,-1496
1756899689.435586,-1485
1756899689.4375596,-1491
1756899689.439517,-1524
1756899689.4415097,-1563
1756899689.4434538,-1583
1756899689.4454033,-1581
1756899689.4474103,-1573
1756899689.4493372,-1568
1756899689.4512603,-1557
1756899689.4533093,-1536
1756899689.4551895,-1524
1756899689.4571486,-1535
1756899689.4599867,-1559
1756899689.4610472,-1568
1756899689.463097,-1554
1756899689.4650676,-1548
1756899689.4669938,-1585
1756899689.4689467,-1654
1756899689.4710646,-1706
1756899689.4729345,-1708
1756899689.4748764,-1681
1756899689.4768734,-1675
1756899689.4788353,-1707
1756899689.4807954,-1744
1756899689.4827228,-1746
1756899689.4847286,-1714
1756899689.486645,-1690
1756899689.4886029,-1703
1756899689.4905741,-1743
1756899689.4925368,-1780
1756899689.4945543,-1803
1756899689.4965143,-1829
1756899689.498424,-1873
1756899689.5004668,-1925
1756899689.5024104,-1957
1756899689.5043437,-1959
1756899689.506334,-1949
1756899689.5083396,-1947
1756899689.5102606,-1955
1756899689.5122302,-1965
1756899689.5142157,-1976
1756899689.5161211,-1998
1756899689.518159,-2035
1756899689.5200984,-2075
1756899689.5220196,-2106
1756899689.5240178,-2135
1756899689.5259938,-2181
1756899689.527928,-2238
1756899689.5298817,-2275
1756899689.5318863,-2264
1756899689.5338106,-2218
1756899689.5358145,-2185
1756899689.5377522,-2200
1756899689.5396726,-2254
1756899689.541959,-2304
1756899689.543747,-2324
1756899689.5456495,-2325
1756899689.547669,-2338
1756899689.5495837,-2381
1756899689.5515938,-2445
1756899689.5535457,-2513
1756899689.5555172,-2568
1756899689.5574598,-2602
1756899689.5594003,-2610
1756899689.5613217,-2598
1756899689.5633209,-2583
1756899689.5653398,-2584
1756899689.5672772,-2608
1756899689.5692425,-2637
1756899689.571204,-2638
1756899689.5732183,-2599
1756899689.5750792,-2547
1756899689.5771272,-2523
1756899689.5790572,-2542
1756899689.5810647,-2575
1756899689.5830255,-2580
1756899689.5850022,-2545
1756899689.5869172,-2506
1756899689.5889187,-2507
1756899689.5908659,-2551
1756899689.592769,-2605
1756899689.5951025,-2641
1756899689.5967395,-2671
1756899689.5986671,-2722
1756899689.6007223,-2799
1756899689.602692,-2884
1756899689.6045554,-2954
1756899689.606618,-3011
1756899689.6085744,-3069
1756899689.6104293,-3135
1756899689.6124647,-3199
1756899689.6144257,-3248
1756899689.6163938,-3276
1756899689.6183743,-3284
1756899689.6203208,-3284
1756899689.6223218,-3296
1756899689.6243052,-3334
1756899689.6262634,-3390
1756899689.6282268,-3441
1756899689.6301544,-3467
1756899689.6321087,-3481
1756899689.634125,-3508
1756899689.6360857,-3557
1756899689.638069,-3606
1756899689.6399755,-3634
1756899689.6419814,-3646
1756899689.6439123,-3661
1756899689.646059,-3682
1756899689.6478624,-3693
1756899689.649803,-3687
1756899689.6517627,-3683
1756899689.6537426,-3700
1756899689.6557915,-3728
1756899689.6576777,-3735
1756899689.6596186,-3711
1756899689.6616275,-3680
1756899689.6636012,-3676
1756899689.6655202,-3697
1756899689.6675465,-3706
1756899689.6694107,-3686
1756899689.6714287,-3654
1756899689.6734266,-3645
1756899689.6753197,-3663
1756899689.6773207,-3685
1756899689.6793249,-3692
1756899689.6812189,-3697
1756899689.6832442,-3724
1756899689.6851757,-3772
1756899689.6871395,-3811
1756899689.6892703,-3816
1756899689.6910782,-3797
1756899689.6930046,-3783
1756899689.6950405,-3782
1756899689.6971803,-3779
1756899689.698919,-3757
1756899689.7009046,-3719
1756899689.7029097,-3691
1756899689.704861,-3691
1756899689.7067804,-3716
1756899689.7087612,-3746
1756899689.7107134,-3761
1756899689.712722,-3753
1756899689.7146645,-3731
1756899689.7165525,-3715
1756899689.7186208,-3719
1756899689.7206051,-3740
1756899689.722512,-3756
1756899689.724527,-3749
1756899689.7264388,-3717
1756899689.7283459,-3682
1756899689.7303798,-3669
1756899689.7323623,-3691
1756899689.7343085,-3740
1756899689.7363248,-3804
1756899689.7382538,-3863
1756899689.7402856,-3909
1756899689.7421653,-3948
1756899689.7441885,-4002
1756899689.7460577,-4083
1756899689.7481592,-4182
1756899689.7499897,-4274
1756899689.7519891,-4340
1756899689.7539964,-4388
1756899689.7559204,-4437
1756899689.7578866,-4496
1756899689.7598407,-4562
1756899689.761763,-4627
1756899689.7638137,-4691
1756899689.7657852,-4759
1756899689.767764,-4825
1756899689.769634,-4877
1756899689.771655,-4906
1756899689.773666,-4922
1756899689.775527,-4945
1756899689.7775893,-4988
1756899689.779544,-5043
1756899689.7814317,-5091
1756899689.7834332,-5116
1756899689.7853975,-5123
1756899689.7874088,-5131
1756899689.789331,-5152
1756899689.7912908,-5182
1756899689.793292,-5212
1756899689.795226,-5232
1756899689.7975,-5244
1756899689.7991583,-5253
1756899689.8010445,-5257
1756899689.8031428,-5251
1756899689.8050115,-5237
1756899689.8070252,-5223
1756899689.8090408,-5217
1756899689.8107886,-5215
1756899689.8130188,-5207
1756899689.8149264,-5186
1756899689.8168826,-5156
1756899689.818857,-5129
1756899689.8208756,-5103
1756899689.822736,-5072
1756899689.824701,-5035
1756899689.8267114,-5000
1756899689.828634,-4975
1756899689.8306048,-4949
1756899689.8326015,-4905
1756899689.8345351,-4842
1756899689.8400013,-4779
1756899689.8455613,-4734
1756899689.84576,-4705
1756899689.8459542,-4673
1756899689.8461478,-4627
1756899689.8502116,-4579
1756899689.8504124,-4548
1756899689.8507164,-4536
1756899689.8522158,-4529
1756899689.8541873,-4514
1756899689.8561919,-4489
1756899689.858074,-4453
1756899689.8600764,-4403
1756899689.8620384,-4337
1756899689.864001,-4273
1756899689.8659809,-4229
1756899689.8679392,-4203
1756899689.8699431,-4168
1756899689.8720043,-4111
1756899689.873878,-4050
1756899689.875829,-4019
1756899689.877785,-4022
1756899689.8798602,-4029
1756899689.8817184,-4013
1756899689.8837008,-3984
1756899689.8856716,-3968
1756899689.8876088,-3973
1756899689.8896065,-3982
1756899689.891544,-3982
1756899689.8934724,-3985
1756899689.8955019,-3993
1756899689.8985202,-3973
1756899689.899412,-3879
1756899689.9014056,-3711
1756899689.9033124,-3527
1756899689.9053137,-3383
1756899689.9072797,-3280
1756899689.9092505,-3175
1756899689.9111474,-3045
1756899689.913133,-2921
1756899689.9151025,-2852
1756899689.9171002,-2861
1756899689.9190714,-2927
1756899689.9210613,-3014
1756899689.9229078,-3091
1756899689.9249957,-3135
1756899689.9269385,-3142
1756899689.9288602,-3139
1756899689.9308376,-3161
1756899689.9327419,-3222
1756899689.9347527,-3288
1756899689.936759,-3325
1756899689.9387429,-3347
1756899689.9406054,-3408
1756899689.9425697,-3545
1756899689.944639,-3735
1756899689.9465497,-3940
1756899689.948423,-4154
1756899689.950477,-4397
1756899689.9523964,-4654
1756899689.9544106,-4868
1756899689.9564173,-4992
1756899689.9583192,-5034
1756899689.9602983,-5036
1756899689.9622333,-5010
1756899689.9642265,-4929
1756899689.9661944,-4778
1756899689.9682465,-4593
1756899689.9700925,-4433
1756899689.9721,-4326
1756899689.9741833,-4249
1756899689.9760487,-4180
1756899689.9780338,-4129
1756899689.9799583,-4117
1756899689.9819639,-4136
1756899689.983827,-4148
1756899689.985901,-4131
1756899689.9878385,-4094
1756899689.989793,-4056
1756899689.9917746,-4016
1756899689.9936867,-3957
1756899689.995724,-3870
1756899689.9977129,-3776
1756899689.9995666,-3700
1756899690.0016434,-3653
1756899690.003494,-3623
1756899690.0054815,-3589
1756899690.007531,-3540
1756899690.0094929,-3480
1756899690.0113091,-3425
1756899690.013377,-3384
1756899690.0152826,-3363
1756899690.0173423,-3358
1756899690.0193014,-3369
1756899690.021294,-3397
1756899690.0232093,-3450
1756899690.0251205,-3532
1756899690.0271683,-3628
1756899690.0290918,-3711
1756899690.0310664,-3754
1756899690.033027,-3751
1756899690.03499,-3717
1756899690.0369873,-3680
1756899690.0389173,-3652
1756899690.040854,-3631
1756899690.0428839,-3609
1756899690.0449657,-3591
1756899690.0467322,-3592
1756899690.0645428,-3617
1756899690.0648372,-3655
1756899690.065054,-3689
1756899690.0652587,-3709
1756899690.0654564,-3711
1756899690.0656555,-3695
1756899690.0658507,-3669
1756899690.066049,-3648
1756899690.0662498,-3649
1756899690.0664482,-3664
1756899690.068356,-3669
1756899690.0703044,-3648
1756899690.0723336,-3615
1756899690.0852118,-3602
1756899690.0854416,-3622
1756899690.085639,-3651
1756899690.085848,-3655
1756899690.0860448,-3625
1756899690.086242,-3585
1756899690.0864398,-3563
1756899690.088013,-3562
1756899690.1072328,-3569
1756899690.1077662,-3573
1756899690.108272,-3579
1756899690.108732,-3594
1756899690.110373,-3615
1756899690.1122158,-3634
1756899690.1126888,-3652
1756899690.1131434,-3677
1756899690.113587,-3713
1756899690.1140294,-3757
1756899690.1145844,-3789
1756899690.115087,-3790
1756899690.1158133,-3757
1756899690.1161427,-3710
1756899690.117422,-3675
1756899690.119497,-3668
1756899690.121365,-3676
1756899690.1233566,-3673
1756899690.1253119,-3650
1756899690.1273394,-3622
1756899690.1293013,-3619
1756899690.132457,-3657
1756899690.1331751,-3725
1756899690.1399996,-3796
1756899690.1402316,-3848
1756899690.1404285,-3876
1756899690.1421807,-3893
1756899690.143341,-3911
1756899690.1449883,-3940
1756899690.1468983,-3974
1756899690.1489792,-4006
1756899690.1508632,-4034
1756899690.1532269,-4066
1756899690.1691585,-4111
1756899690.1694422,-4171
1756899690.169644,-4239
1756899690.170263,-4302
1756899690.1707225,-4354
1756899690.1709898,-4393
1756899690.171189,-4421
1756899690.1713872,-4435
1756899690.1716168,-4433
1756899690.1740382,-4417
1756899690.174496,-4393
1756899690.1764681,-4371
1756899690.1783948,-4362
1756899690.1811838,-4371
1756899690.1855063,-4393
1756899690.1858037,-4415
1756899690.186545,-4426
1756899690.1882184,-4427
1756899690.190181,-4428
1756899690.192203,-4441
1756899690.1940444,-4464
1756899690.2011168,-4487
1756899690.2013416,-4496
1756899690.201599,-4489
1756899690.2019923,-4478
1756899690.2042174,-4483
1756899690.227512,-4507
1756899690.2278104,-4535
1756899690.2280092,-4540
1756899690.228247,-4518
1756899690.2284482,-4486
1756899690.2286978,-4471
1756899690.2288938,-4468
1756899690.2291248,-4454
1756899690.2294486,-4414
1756899690.2296507,-4367
1756899690.2298894,-4347
1756899690.2300897,-4357
1756899690.2544415,-4368
1756899690.254726,-4359
1756899690.2549877,-4345
1756899690.2551858,-4357
1756899690.2554598,-4399
1756899690.2556586,-4434
1756899690.2558565,-4428
1756899690.2560537,-4385
1756899690.2562492,-4342
1756899690.2564442,-4330
1756899690.2566383,-4344
1756899690.25685,-4359
1756899690.2570462,-4354
1756899690.257241,-4329
1756899690.257438,-4301
1756899690.2592454,-4288
1756899690.2664607,-4296
1756899690.266702,-4320
1756899690.2668996,-4350
1756899690.2670968,-4374
1756899690.2687445,-4387
1756899690.2707598,-4379
1756899690.2727752,-4349
1756899690.2746658,-4304
1756899690.277267,-4263
1756899690.2785738,-4241
1756899690.2805367,-4230
1756899690.282499,-4208
1756899690.284456,-4160
1756899690.2894886,-4103
1756899690.2898438,-4067
1756899690.2904778,-4070
1756899690.2924538,-4106
1756899690.2943146,-4156
1756899690.3072584,-4199
1756899690.3075657,-4223
1756899690.307767,-4227
1756899690.3080063,-4233
1756899690.3083408,-4266
1756899690.3086991,-4330
1756899690.3089035,-4397
1756899690.310018,-4436
1756899690.3120015,-4446
1756899690.321169,-4456
1756899690.321409,-4486
1756899690.321705,-4527
1756899690.3219068,-4561
1756899690.3224802,-4596
1756899690.3237672,-4654
1756899690.3257358,-4729
1756899690.3277435,-4783
1756899690.3297029,-4789
1756899690.333343,-4769
1756899690.3336096,-4769
1756899690.335633,-4798
1756899690.337591,-4817
1756899690.3396077,-4783
1756899690.3415892,-4707
1756899690.3435173,-4642
1756899690.3455312,-4619
1756899690.347791,-4618
1756899690.3493965,-4602
1756899690.3513622,-4561
1756899690.356926,-4521
1756899690.3587499,-4513
1756899690.3590417,-4535
1756899690.3592412,-4566
1756899690.361417,-4583
1756899690.363351,-4581
1756899690.3654056,-4567
1756899690.3701417,-4553
1756899690.3703659,-4545
1756899690.3715646,-4542
1756899690.372924,-4535
1756899690.374754,-4515
1756899690.3767233,-4484
1756899690.3787944,-4454
1756899690.381382,-4434
1756899690.382657,-4427
1756899690.3846035,-4421
1756899690.3865843,-4403
1756899690.3885853,-4368
1756899690.3904903,-4315
1756899690.3926365,-4256
1756899690.3944132,-4200
1756899690.3963926,-4157
1756899690.3985546,-4123
1756899690.4005446,-4091
1756899690.4024825,-4056
1756899690.4044785,-4018
1756899690.4064436,-3985
1756899690.4085577,-3961
1756899690.4103398,-3938
1756899690.412276,-3907
1756899690.4142368,-3866
1756899690.4175863,-3816
1756899690.4190323,-3763
1756899690.4219701,-3707
1756899690.4220767,-3654
1756899690.4245863,-3605
1756899690.4260945,-3555
1756899690.429539,-3499
1756899690.4299529,-3445
1756899690.434007,-3415
1756899690.434086,-3428
1756899690.436543,-3474
1756899690.4377072,-3513
1756899690.4410026,-3512
1756899690.4415543,-3483
1756899690.44367,-3467
1756899690.4457207,-3491
1756899690.447564,-3539
1756899690.4496593,-3561
1756899690.451394,-3532
1756899690.453403,-3476
1756899690.4554226,-3443
1756899690.4573364,-3458
1756899690.4593074,-3502
1756899690.4612184,-3544
1756899690.4633665,-3570
1756899690.465307,-3592
1756899690.4672894,-3617
1756899690.4696567,-3639
1756899690.4714231,-3646
1756899690.473385,-3646
1756899690.4754033,-3654
1756899690.4773,-3665
1756899690.4792538,-3653
1756899690.4812315,-3601
1756899690.483117,-3534
1756899690.4862056,-3499
1756899690.4869585,-3514
1756899690.488915,-3550
1756899690.4908886,-3565
1756899690.4929955,-3551
1756899690.5011587,-3539
1756899690.50144,-3557
1756899690.5015295,-3591
1756899690.501602,-3597
1756899690.502663,-3552
1756899690.5046327,-3476
1756899690.5065837,-3406
1756899690.5085464,-3354
1756899690.5105093,-3301
1756899690.5125773,-3226
1756899690.5145311,-3130
1756899690.5167215,-3040
1756899690.5193532,-2974
1756899690.5204473,-2921
1756899690.530309,-2859
1756899690.5304587,-2784
1756899690.530582,-2714
1756899690.5307035,-2664
1756899690.530826,-2627
1756899690.5322134,-2572
1756899690.5341575,-2482
1756899690.5360613,-2375
1756899690.5380363,-2282
1756899690.5404718,-2216
1756899690.5419981,-2165
1756899690.5438907,-2111
1756899690.5460641,-2050
1756899690.547853,-1991
1756899690.5501873,-1940
1756899690.5518873,-1891
1756899690.5542016,-1848
1756899690.5598307,-1820
1756899690.5599167,-1815
1756899690.5599632,-1816
1756899690.5615609,-1796
1756899690.5637333,-1753
1756899690.5654612,-1715
1756899690.5684073,-1714
1756899690.5694015,-1749
1756899690.571333,-1788
1756899690.573291,-1806
1756899690.5761197,-1805
1756899690.577217,-1802
1756899690.5794644,-1805
1756899690.5813098,-1816
1756899690.5831885,-1840
1756899690.5940259,-1879
1756899690.5941665,-1927
1756899690.5942645,-1961
1756899690.5943599,-1963
1756899690.5944567,-1940
1756899690.597213,-1920
1756899690.597338,-1923
1756899690.5988648,-1947
1756899690.6008048,-1965
1756899690.6028273,-1956
1756899690.6047285,-1923
1756899690.606755,-1897
1756899690.608701,-1914
1756899690.6106253,-1982
1756899690.6127348,-2071
1756899690.6146588,-2134
1756899690.61681,-2159
1756899690.6195762,-2178
1756899690.6208072,-2230
1756899690.6230974,-2307
1756899690.625542,-2358
1756899690.626625,-2347
1756899690.628555,-2299
1756899690.630409,-2268
1756899690.6324224,-2281
1756899690.634351,-2316
1756899690.6363587,-2338
1756899690.6383324,-2336
1756899690.6404293,-2336
1756899690.6423216,-2364
1756899690.6441221,-2422
1756899690.646197,-2487
1756899690.6483514,-2529
1756899690.6501555,-2525
1756899690.6634674,-2481
1756899690.6637318,-2426
1756899690.6638145,-2401
1756899690.670069,-2417
1756899690.6701741,-2444
1756899690.6704607,-2441
1756899690.670512,-2399
1756899690.6705592,-2357
1756899690.6706052,-2357
1756899690.6706517,-2397
1756899690.6719954,-2436
1756899690.6735308,-2437
1756899690.675549,-2404
1756899690.6774306,-2382
1756899690.679493,-2404
1756899690.6814766,-2459
1756899690.6833289,-2512
1756899690.685367,-2541
1756899690.687345,-2552
1756899690.6893947,-2567
1756899690.6920614,-2591
1756899690.6931915,-2616
1756899690.6951423,-2626
1756899690.6971066,-2614
1756899690.699096,-2580
1756899690.7010295,-2531
1756899690.7029846,-2487
1756899690.704966,-2471
1756899690.7127237,-2490
1756899690.7131248,-2523
1756899690.713586,-2537
1756899690.7139585,-2518
1756899690.7162316,-2487
1756899690.716875,-2475
1756899690.7187264,-2491
1756899690.721481,-2510
1756899690.7227395,-2500
1756899690.7250938,-2453
1756899690.7265534,-2391
1756899690.728528,-2345
1756899690.7304509,-2332
1756899690.732544,-2339
1756899690.7347183,-2343
1756899690.7367022,-2338
1756899690.738686,-2342
1756899690.7405794,-2366
1756899690.7426126,-2392
1756899690.7445402,-2388
1756899690.746463,-2347
1756899690.7489681,-2307
1756899690.7502706,-2303
1756899690.7523308,-2323
1756899690.7543314,-2315
1756899690.7562072,-2251
1756899690.7580569,-2170
1756899690.7600598,-2139
1756899690.7620077,-2182
1756899690.7639592,-2262
1756899690.7659223,-2339
1756899690.7678132,-2420
1756899690.7697864,-2546
1756899690.7717974,-2738
1756899690.77371,-2972
1756899690.7877758,-3219
1756899690.7880242,-3469
1756899690.7930493,-3731
1756899690.7934422,-3999
1756899690.7936463,-4231
1756899690.7937698,-4382
1756899690.7938874,-4440
1756899690.794178,-4440
1756899690.7942996,-4425
1756899690.7945087,-4403
1756899690.7959301,-4341
1756899690.7977455,-4207
1756899690.7994034,-4021
1756899690.8031018,-3855
1756899690.803252,-3771
1756899690.8052804,-3758
1756899690.8071415,-3747
1756899690.8091912,-3694
1756899690.8111033,-3627
1756899690.8159697,-3607
1756899690.8162851,-3646
1756899690.8174367,-3691
1756899690.8192132,-3683
1756899690.822273,-3621
1756899690.823156,-3552
1756899690.82492,-3509
1756899690.8355708,-3485
1756899690.8357794,-3461
1756899690.8365052,-3434
1756899690.8366945,-3417
1756899690.8368533,-3416
1756899690.8370082,-3421
1756899690.8404336,-3415
1756899690.8406255,-3392
1756899690.847028,-3358
1756899690.8519197,-3323
1756899690.8520865,-3289
1756899690.852208,-3253
1756899690.8523257,-3208
1756899690.8569398,-3156
1756899690.8570983,-3117
1756899690.8572185,-3115
1756899690.858495,-3148
1756899690.8603086,-3185
1756899690.8624167,-3196
1756899690.864367,-3187
1756899690.8663185,-3188
1756899690.8684664,-3201
1756899690.87055,-3195
1756899690.8722823,-3143
1756899690.8740706,-3070
1756899690.876274,-3025
1756899690.8787785,-3017
1756899690.8801003,-2997
1756899690.881994,-2921
1756899690.8839605,-2819
1756899690.8859518,-2769
1756899690.8881133,-2808
1756899690.8901331,-2882
1756899690.8918898,-2900
1756899690.8947244,-2841
1756899690.897531,-2765
1756899690.897691,-2748
1756899690.8998165,-2797
1756899690.9017065,-2850
1756899690.9037259,-2854
1756899690.9060688,-2818
1756899690.9076257,-2791
1756899690.9095514,-2803
1756899690.9113803,-2841
1756899690.9136076,-2866
1756899690.916295,-2857
1756899690.917503,-2822
1756899690.9195876,-2785
1756899690.9212735,-2759
1756899690.9245348,-2743
1756899690.9262397,-2728
1756899690.927247,-2708
1756899690.9291608,-2685
1756899690.931064,-2669
1756899690.9353852,-2668
1756899690.935517,-2677
1756899690.9395454,-2688
1756899690.9414155,-2693
1756899690.9416578,-2699
1756899690.943075,-2714
1756899690.9461281,-2736
1756899690.9470696,-2750
1756899690.948991,-2741
1756899690.95091,-2712
1756899690.9527566,-2680
1756899690.9545734,-2660
1756899690.9567473,-2645
1756899690.9587781,-2619
1756899690.960669,-2584
1756899690.9626422,-2557
1756899690.964466,-2557
1756899690.9665825,-2577
1756899690.968601,-2587
1756899690.9704864,-2570
1756899690.9725606,-2540
1756899690.9743183,-2531
1756899690.9763541,-2562
1756899690.9783518,-2612
1756899690.9802747,-2644
1756899690.982388,-2641
1756899690.9840305,-2624
1756899690.987629,-2630
1756899690.9884832,-2674
1756899690.9967046,-2730
1756899691.00378,-2759
1756899691.0042026,-2751
1756899691.0044456,-2731
1756899691.0046792,-2729
1756899691.004966,-2745
1756899691.0051975,-2752
1756899691.005427,-2736
1756899691.0058825,-2714
1756899691.0078561,-2703
1756899691.0100064,-2696
1756899691.0119095,-2673
1756899691.0161939,-2635
1756899691.0163062,-2616
1756899691.0197008,-2643
1756899691.0199933,-2699
1756899691.0213597,-2739
1756899691.024536,-2738
1756899691.0255551,-2720
1756899691.0275083,-2718
1756899691.0295084,-2743
1756899691.0312188,-2768
1756899691.0336194,-2769
1756899691.0354152,-2745
1756899691.037357,-2712
1756899691.0393677,-2687
1756899691.0413547,-2675
1756899691.043206,-2676
1756899691.051743,-2684
1756899691.0519967,-2693
1756899691.0521202,-2699
1756899691.0522387,-2707
1756899691.0528455,-2722
1756899691.0549433,-2737
1756899691.0568879,-2740
1756899691.0589795,-2732
1756899691.063236,-2729
1756899691.069007,-2743
1756899691.0691133,-2764
1756899691.0702035,-2764
1756899691.0704513,-2734
1756899691.0704992,-2699
1756899691.0729856,-2691
1756899691.0743918,-2714
1756899691.0765371,-2738
1756899691.0783067,-2725
1756899691.0802746,-2672
1756899691.0822635,-2610
1756899691.084343,-2577
1756899691.0863268,-2586
1756899691.088208,-2618
1756899691.0902326,-2642
1756899691.0921793,-2641
1756899691.0940878,-2621
1756899691.0961294,-2606
1756899691.0980527,-2613
1756899691.10006,-2633
1756899691.101989,-2640
1756899691.1040113,-2616
1756899691.1058953,-2575
1756899691.1077988,-2544
1756899691.1097636,-2536
1756899691.1117697,-2547
1756899691.1140726,-2563
1756899691.1157174,-2584
1756899691.1176882,-2613
1756899691.1196535,-2641
1756899691.1215775,-2652
1756899691.1236117,-2645
1756899691.126124,-2641
1756899691.1274984,-2658
1756899691.1301875,-2690
1756899691.1314318,-2708
1756899691.1333911,-2699
1756899691.135427,-2675
1756899691.1374826,-2662
1756899691.140499,-2666
1756899691.1413257,-2672
1756899691.1434317,-2667
1756899691.14589,-2646
1756899691.1472638,-2620
1756899691.1492968,-2599
1756899691.151181,-2587
1756899691.1531706,-2584
1756899691.1562097,-2593
1756899691.157026,-2618
1756899691.1594296,-2656
1756899691.1608942,-2705
1756899691.163993,-2757
1756899691.164815,-2805
1756899691.1670225,-2848
1756899691.1687226,-2884
1756899691.1709101,-2911
1756899691.1726928,-2926
1756899691.1746004,-2928
1756899691.1767106,-2923
1756899691.1786172,-2912
1756899691.1806474,-2891
1756899691.1834772,-2858
1756899691.184453,-2825
1756899691.1867962,-2815
1756899691.1884184,-2837
1756899691.1903503,-2876
1756899691.192359,-2904
1756899691.1964493,-2910
1756899691.1968076,-2911
1756899691.1985023,-2930
1756899691.20039,-2971
1756899691.2033613,-3020
1756899691.2043931,-3063
1756899691.2063427,-3094
1756899691.2081146,-3113
1756899691.2100954,-3118
1756899691.212086,-3112
1756899691.2140002,-3107
1756899691.2160249,-3115
1756899691.217863,-3132
1756899691.2199144,-3139
1756899691.2218287,-3122
1756899691.2238443,-3093
1756899691.2257626,-3073
1756899691.2281969,-3071
1756899691.230668,-3077
1756899691.2320404,-3081
1756899691.234212,-3085
1756899691.2367644,-3091
1756899691.237632,-3099
1756899691.2395024,-3101
1756899691.2415817,-3101
1756899691.2434497,-3111
1756899691.245495,-3132
1756899691.247412,-3142
1756899691.2492995,-3121
1756899691.251251,-3078
1756899691.2532322,-3050
1756899691.255215,-3062
1756899691.2571723,-3098
1756899691.2592847,-3112
1756899691.2618341,-3083
1756899691.2631538,-3033
1756899691.2669878,-3008
1756899691.2674656,-3026
1756899691.2719438,-3057
1756899691.2721202,-3056
1756899691.2729297,-3004
1756899691.274958,-2931
1756899691.2768753,-2882
1756899691.2790582,-2875
1756899691.280879,-2888
1756899691.2827513,-2875
1756899691.2847297,-2819
1756899691.286742,-2747
1756899691.2886446,-2701
1756899691.2906241,-2699
1756899691.292704,-2721
1756899691.2955043,-2735
1756899691.2967415,-2728
1756899691.3002188,-2713
1756899691.3015387,-2714
1756899691.3024251,-2743
1756899691.3044822,-2785
1756899691.3063667,-2817
1756899691.3083858,-2825
1756899691.3103976,-2819
1756899691.3122888,-2821
1756899691.3142126,-2844
1756899691.3161092,-2878
1756899691.3182025,-2904
1756899691.3201702,-2913
1756899691.3220415,-2916
1756899691.3240075,-2925
1756899691.326218,-2937
1756899691.328072,-2937
1756899691.329975,-2922
1756899691.3319747,-2906
1756899691.3340745,-2898
1756899691.3359258,-2882
1756899691.337934,-2833
1756899691.3399057,-2748
1756899691.3463087,-2660
1756899691.3465514,-2603
1756899691.34675,-2578
1756899691.3476737,-2554
1756899691.3497643,-2512
1756899691.3517072,-2457
1756899691.3538017,-2412
1756899691.3556018,-2387
1756899691.357588,-2375
1756899691.3597252,-2370
1756899691.3615165,-2375
1756899691.36358,-2383
1756899691.3658674,-2376
1756899691.367252,-2349
1756899691.3692894,-2325
1756899691.3712406,-2337
1756899691.3733172,-2378
1756899691.3753717,-2406
1756899691.377166,-2379
1756899691.379129,-2308
1756899691.381079,-2244
1756899691.3831582,-2221
1756899691.3862538,-2218
1756899691.387198,-2194
1756899691.3893304,-2142
1756899691.391094,-2092
1756899691.39315,-2072
1756899691.3951087,-2078
1756899691.3970594,-2086
1756899691.3989093,-2087
1756899691.405015,-2094
1756899691.4064746,-2120
1756899691.4069567,-2153
1756899691.4097266,-2176
1756899691.4101667,-2182
1756899691.410601,-2185
1756899691.4127069,-2200
1756899691.4158888,-2221
1756899691.4172966,-2235
1756899691.4184618,-2238
1756899691.4207733,-2236
1756899691.4242573,-2241
1756899691.4244702,-2255
1756899691.426303,-2272
1756899691.4288578,-2279
1756899691.430279,-2272
1756899691.4333684,-2255
1756899691.4345853,-2242
1756899691.4364655,-2241
1756899691.4483235,-2252
1756899691.4485571,-2264
1756899691.448756,-2274
1756899691.448954,-2289
1756899691.4491508,-2317
1756899691.4493482,-2353
1756899691.4500854,-2385
1756899691.4519837,-2409
1756899691.454162,-2425
1756899691.4560547,-2432
1756899691.458007,-2422
1756899691.4599886,-2389
1756899691.461734,-2344
1756899691.4647393,-2308
1756899691.465595,-2282
1756899691.4679337,-2247
1756899691.4695911,-2193
1756899691.4715044,-2134
1756899691.473444,-2099
1756899691.475419,-2095
1756899691.47744,-2098
1756899691.4794343,-2085
1756899691.4814224,-2063
1756899691.4836063,-2061
1756899691.4854224,-2083
1756899691.4904854,-2105
1756899691.490718,-2101
1756899691.4912064,-2075
1756899691.493238,-2048
1756899691.4965942,-2029
1756899691.4971066,-2003
1756899691.503801,-1957
1756899691.5040882,-1899
1756899691.5043254,-1849
1756899691.5049667,-1811
1756899691.5069258,-1770
1756899691.5091453,-1718
1756899691.5108223,-1669
1756899691.513108,-1647
1756899691.5147307,-1649
1756899691.5167687,-1649
1756899691.518747,-1626
1756899691.5207798,-1591
1756899691.522626,-1577
1756899691.5246124,-1595
1756899691.5265443,-1625
1756899691.5286157,-1637
1756899691.5305073,-1623
1756899691.5325134,-1598
1756899691.5344298,-1580
1756899691.5365021,-1564
1756899691.5383089,-1539
1756899691.5403466,-1510
1756899691.54226,-1495
1756899691.5443976,-1504
1756899691.5462136,-1524
1756899691.5485108,-1532
1756899691.5518682,-1522
1756899691.552209,-1512
1756899691.5564911,-1520
1756899691.5567527,-1541
1756899691.5583081,-1555
1756899691.5600922,-1547
1756899691.5622876,-1526
1756899691.5700622,-1510
1756899691.5702934,-1510
1756899691.5704982,-1521
1756899691.570701,-1540
1756899691.571824,-1566
1756899691.5736785,-1595
1756899691.575699,-1608
1756899691.5776901,-1590
1756899691.579947,-1546
1756899691.5816104,-1508
1756899691.5835793,-1502
1756899691.58559,-1533
1756899691.587489,-1580
1756899691.5901647,-1633
1756899691.5913727,-1701
1756899691.5940292,-1814
1756899691.5953188,-1992
1756899691.5972664,-2237
1756899691.6004322,-2528
1756899691.6022274,-2828
1756899691.6031597,-3089
1756899691.618464,-3276
1756899691.620622,-3389
1756899691.62088,-3449
1756899691.6248808,-3475
1756899691.6374447,-3461
1756899691.6379898,-3382
1756899691.6384163,-3239
1756899691.6387472,-3064
1756899691.6391656,-2898
1756899691.639461,-2768
1756899691.6396646,-2678
1756899691.640873,-2625
1756899691.6411862,-2598
1756899691.6413863,-2578
1756899691.6417313,-2549
1756899691.642879,-2514
1756899691.6432614,-2496
1756899691.6434655,-2507
1756899691.643663,-2535
1756899691.6438594,-2544
1756899691.644414,-2520
1756899691.6463869,-2476
1756899691.6483595,-2442
1756899691.6503236,-2433
1756899691.65294,-2442
1756899691.6542807,-2461
1756899691.656265,-2489
1756899691.6582508,-2522
1756899691.6602752,-2552
1756899691.66218,-2573
1756899691.664125,-2594
1756899691.667766,-2627
1756899691.6681855,-2670
1756899691.6701746,-2701
1756899691.672239,-2705
1756899691.6739552,-2695
1756899691.676159,-2707
1756899691.6779568,-2752
1756899691.6799054,-2798
1756899691.6818545,-2806
1756899691.6867468,-2777
1756899691.6870143,-2759
1756899691.687723,-2792
1756899691.6896741,-2859
1756899691.6919086,-2907
1756899691.6974955,-2905
1756899691.697717,-2880
1756899691.6980062,-2881
1756899691.6995478,-2917
1756899691.701548,-2955
1756899691.7040672,-2962
1756899691.7054808,-2940
1756899691.7073863,-2918
1756899691.7093256,-2915
1756899691.7113495,-2928
1756899691.7133262,-2955
1756899691.7151814,-2997
1756899691.7173965,-3053
1756899691.7191978,-3103
1756899691.7211292,-3125
1756899691.7238302,-3120
1756899691.7250602,-3118
1756899691.7271588,-3148
1756899691.7290087,-3215
1756899691.7310004,-3299
1756899691.7329829,-3377
1756899691.7349837,-3448
1756899691.7370026,-3527
1756899691.7412841,-3626
1756899691.7417235,-3742
1756899691.7428186,-3866
1756899691.7447586,-3990
1756899691.7477093,-4113
1756899691.7486594,-4231
1756899691.75118,-4338
1756899691.7583585,-4430
1756899691.758941,-4509
1756899691.7591667,-4587
1756899691.7593815,-4665
1756899691.7604656,-4741
1756899691.762449,-4818
1756899691.766639,-4898
1756899691.7671256,-4978
1756899691.7683098,-5042
1756899691.7702546,-5073
1756899691.7722127,-5081
1756899691.7741508,-5092
1756899691.7764518,-5122
1756899691.7917516,-5159
1756899691.792016,-5181
1756899691.7922168,-5185
1756899691.7924156,-5191
1756899691.7926147,-5216
1756899691.7928143,-5258
1756899691.7930129,-5304
1756899691.7932112,-5339
1756899691.7939088,-5360
1756899691.7957726,-5363
1756899691.7978747,-5348
1756899691.799779,-5318
1756899691.8020937,-5286
1756899691.8043609,-5266
1756899691.8059833,-5263
1756899691.8118753,-5273
1756899691.8121235,-5284
1756899691.812374,-5278
1756899691.8134358,-5245
1756899691.8156128,-5197
1756899691.8173754,-5166
1756899691.8195822,-5167
1756899691.8231988,-5180
1756899691.8236544,-5163
1756899691.8285882,-5106
1756899691.829114,-5047
1756899691.8293269,-5031
1756899691.831136,-5060
1756899691.833423,-5089
1756899691.8351161,-5077
1756899691.8371599,-5030
1756899691.8391101,-4987
1756899691.8482437,-4973
1756899691.8485186,-4977
1756899691.8487287,-4965
1756899691.8489358,-4918
1756899691.8525178,-4847
1756899691.8614557,-4775
1756899691.861887,-4725
1756899691.8620937,-4697
1756899691.862291,-4681
1756899691.8625903,-4660
1756899691.8627863,-4628
1756899691.8630219,-4597
1756899691.864537,-4586
1756899691.866499,-4595
1756899691.868467,-4605
1756899691.8726158,-4586
1756899691.8735673,-4537
1756899691.8743432,-4483
1756899691.876325,-4455
1756899691.878916,-4451
1756899691.8803656,-4435
1756899691.8822093,-4374
1756899691.8847077,-4277
1756899691.886259,-4193
1756899691.8910682,-4154
1756899691.8912823,-4151
1756899691.8920422,-4142
1756899691.8984435,-4097
1756899691.8986857,-4029
1756899691.898907,-3973
1756899691.899936,-3946
1756899691.902081,-3933
1756899691.9038591,-3908
1756899691.9059956,-3864
1756899691.9078476,-3816
1756899691.9099035,-3781
1756899691.9118674,-3757
1756899691.91383,-3731
1756899691.9158413,-3702
1756899691.918163,-3682
1756899691.9198968,-3678
1756899691.92401,-3674
1756899691.9243116,-3643
1756899691.9254668,-3575
1756899691.9277256,-3498
1756899691.9297848,-3445
1756899691.9313333,-3422
1756899691.9333055,-3403
1756899691.9352846,-3365
1756899691.9372673,-3317
1756899691.9463634,-3281
1756899691.9466379,-3260
1756899691.9469237,-3238
1756899691.947145,-3205
1756899691.9473443,-3176
1756899691.9491265,-3165
1756899691.9510772,-3162
1756899691.9566617,-3144
1756899691.95694,-3106
1756899691.957139,-3074
1756899691.9588678,-3073
1756899691.960838,-3094
1756899691.9628289,-3100
1756899691.9673615,-3067
1756899691.9681895,-3005
1756899691.971862,-2943
1756899691.9720914,-2900
1756899691.9726343,-2873
1756899691.9745872,-2847
1756899691.9765491,-2811
1756899691.9785216,-2765
1756899691.9804869,-2718
1756899691.9825327,-2688
1756899691.9868271,-2685
1756899691.9870696,-2703
1756899691.9883943,-2710
1756899691.990652,-2684
1756899691.9923167,-2633
1756899691.9942899,-2590
1756899691.996283,-2573
1756899691.9982076,-2560
1756899692.0001276,-2512
1756899692.0029206,-2431
1756899692.0041826,-2372
1756899692.0123434,-2387
1756899692.01265,-2454
1756899692.013183,-2491
1756899692.0133953,-2445
1756899692.0140276,-2357
1756899692.0158615,-2316
1756899692.0180092,-2351
1756899692.019864,-2398
1756899692.0219207,-2378
1756899692.0249026,-2294
1756899692.0258482,-2222
1756899692.0277984,-2212
1756899692.0295753,-2234
1756899692.0389106,-2230
1756899692.0391648,-2197
1756899692.0397165,-2183
1756899692.0399227,-2209
1756899692.0401301,-2235
1756899692.041407,-2210
1756899692.0459504,-2145
1756899692.0462246,-2102
1756899692.0473483,-2116
1756899692.049302,-2152
1756899692.0512562,-2153
1756899692.054786,-2108
1756899692.0551727,-2063
1756899692.0598006,-2056
1756899692.0602536,-2071
1756899692.0610647,-2074
1756899692.0630333,-2053
1756899692.0650036,-2033
1756899692.066969,-2035
1756899692.0689092,-2046
1756899692.0708816,-2043
1756899692.0728517,-2023
1756899692.077502,-2004
1756899692.077926,-1994
1756899692.0787659,-1985
1756899692.0807269,-1971
1756899692.08287,-1965
1756899692.0887184,-1976
1756899692.0889347,-1997
1756899692.0891318,-2003
1756899692.0905385,-1990
1756899692.0925128,-1982
1756899692.0944717,-1995
1756899692.096419,-2013
1756899692.0984461,-2012
1756899692.100514,-1984
1756899692.1023085,-1952
1756899692.104271,-1936
1756899692.108666,-1929
1756899692.1089206,-1909
1756899692.1102016,-1877
1756899692.1126413,-1853
1756899692.1141212,-1849
1756899692.116082,-1853
1756899692.118039,-1842
1756899692.1200156,-1811
1756899692.1219926,-1776
1756899692.123929,-1758
1756899692.127166,-1764
1756899692.127818,-1789
1756899692.1300015,-1817
1756899692.1319828,-1833
1756899692.1339571,-1829
1756899692.136035,-1818
1756899692.1378798,-1820
1756899692.1399333,-1836
1756899692.147773,-1850
1756899692.148048,-1840
1756899692.1484187,-1811
1756899692.1486368,-1784
1756899692.1494908,-1770
1756899692.1517212,-1756
1756899692.153429,-1725
1756899692.1584413,-1686
1756899692.1586611,-1664
1756899692.1593301,-1668
1756899692.1612623,-1680
1756899692.1641817,-1674
1756899692.1651945,-1648
1756899692.1672397,-1630
1756899692.1691198,-1643
1756899692.1710818,-1675
1756899692.1763837,-1702
1756899692.1766431,-1708
1756899692.1793518,-1704
1756899692.1833146,-1705
1756899692.1839118,-1708
1756899692.184278,-1694
1756899692.1876757,-1654
1756899692.1878982,-1603
1756899692.1887803,-1568
1756899692.190752,-1550
1756899692.1927195,-1531
1756899692.1947596,-1493
1756899692.1983657,-1444
1756899692.1986792,-1411
1756899692.2008336,-1413
1756899692.2025795,-1446
1756899692.2045276,-1481
1756899692.206513,-1492
1756899692.2083876,-1470
1756899692.2113683,-1433
1756899692.2122436,-1413
1756899692.2143896,-1425
1756899692.216273,-1449
1756899692.218255,-1451
1756899692.2202191,-1422
1756899692.2220778,-1393
1756899692.2240229,-1402
1756899692.2260947,-1445
1756899692.2281678,-1482
1756899692.230226,-1478
1756899692.2321553,-1448
1756899692.2352605,-1432
1756899692.2361987,-1451
1756899692.2390428,-1481
1756899692.239986,-1488
1756899692.2427185,-1467
1756899692.2440314,-1443
1756899692.246074,-1439
1756899692.2491791,-1459
1756899692.2503233,-1487
1756899692.2593708,-1512
1756899692.2594812,-1527
1756899692.2595527,-1529
1756899692.2596235,-1521
1756899692.2597163,-1514
1756899692.2615304,-1519
1756899692.2634146,-1533
1756899692.266277,-1544
1756899692.2677267,-1538
1756899692.2694466,-1515
1756899692.2714,-1485
1756899692.273381,-1459
1756899692.2753873,-1439
1756899692.2775319,-1429
1756899692.279853,-1429
1756899692.2990227,-1430
1756899692.2998502,-1415
1756899692.2999134,-1374
1756899692.2999618,-1324
1756899692.3000093,-1292
1756899692.3000562,-1295
1756899692.3001044,-1316
1756899692.3001502,-1315
1756899692.3001978,-1273
1756899692.3002453,-1211
1756899692.301749,-1166
1756899692.302629,-1156
1756899692.3045802,-1165
1756899692.3065474,-1161
1756899692.3085978,-1129
1756899692.310475,-1076
1756899692.3137085,-1019
1756899692.3144734,-966
1756899692.3164952,-921
1756899692.3204226,-893
1756899692.3206108,-887
1756899692.32265,-894
1756899692.3244636,-897
1756899692.3271368,-891
1756899692.3284361,-896
1756899692.330309,-923
1756899692.3323357,-962
1756899692.334194,-976
1756899692.3361533,-950
1756899692.341664,-903
1756899692.3419383,-874
1756899692.3420632,-877
1756899692.3440185,-891
1756899692.345942,-892
1756899692.3478906,-883
1756899692.3501635,-887
1756899692.3518054,-912
1756899692.3537564,-940
1756899692.356125,-951
1756899692.357903,-950
1756899692.3600085,-955
1756899692.3618236,-972
1756899692.3644426,-983
1756899692.3657537,-970
1756899692.3682656,-940
1756899692.3696513,-914
1756899692.371654,-907
1756899692.3736107,-915
1756899692.3755715,-919
1756899692.3776221,-908
1756899692.379497,-882
1756899692.3820517,-854
1756899692.3834205,-839
1756899692.3855765,-842
1756899692.3881197,-854
1756899692.3900256,-859
1756899692.3923979,-850
1756899692.3932548,-831
1756899692.3953066,-816
1756899692.3972144,-812
1756899692.3991425,-812
1756899692.4018884,-813
1756899692.4030526,-823
1756899692.405247,-861
1756899692.406974,-932
1756899692.4089494,-1029
1756899692.4108949,-1143
1756899692.4129696,-1278
1756899692.4148765,-1449
1756899692.4169724,-1662
1756899692.4187212,-1895
1756899692.4207416,-2104
1756899692.4226959,-2251
1756899692.4246652,-2326
1756899692.4266276,-2340
1756899692.4285862,-2313
1756899692.4305568,-2250
1756899692.432532,-2152
1756899692.4344866,-2020
1756899692.4364583,-1859
1756899692.43843,-1682
1756899692.4403832,-1508
1756899692.4423707,-1364
1756899692.4443195,-1271
1756899692.4463139,-1225
1756899692.4485211,-1200
1756899692.4501543,-1166
1756899692.452298,-1113
1756899692.4542253,-1051
1756899692.4560714,-998
1756899692.4580953,-967
1756899692.4600556,-956
1756899692.462631,-953
1756899692.4662232,-936
1756899692.4664643,-891
1756899692.4680536,-834
1756899692.473225,-802
1756899692.4734704,-809
1756899692.4739728,-831
1756899692.47574,-830
1756899692.4782963,-795
1756899692.4797857,-760
1756899692.4816673,-752
1756899692.483671,-759
1756899692.4855957,-741
1756899692.4875052,-691
1756899692.4902194,-643
1756899692.4914196,-640
1756899692.4933712,-675
1756899692.49541,-712
1756899692.4973717,-720
1756899692.4992673,-707
1756899692.5012345,-695
1756899692.5032759,-698
1756899692.5052257,-710
1756899692.507248,-722
1756899692.5092165,-730
1756899692.51117,-729
1756899692.5132928,-719
1756899692.5155332,-704
1756899692.5172293,-699
1756899692.5190918,-715
1756899692.5219617,-747
1756899692.522853,-774
1756899692.5249312,-778
1756899692.5312061,-753
1756899692.5314963,-716
1756899692.5316985,-685
1756899692.5328064,-675
1756899692.5348225,-683
1756899692.5367246,-697
1756899692.5398543,-703
1756899692.5406065,-699
1756899692.543845,-691
1756899692.5446367,-689
1756899692.5501444,-697
1756899692.5503738,-716
1756899692.5507128,-738
1756899692.5526426,-751
1756899692.5543456,-748
1756899692.556298,-734
1756899692.5583615,-729
1756899692.5602827,-740
1756899692.5631356,-762
1756899692.5641866,-778
1756899692.5662525,-783
1756899692.5680792,-784
1756899692.5701487,-789
1756899692.5720582,-791
1756899692.574198,-783
1756899692.5760276,-773
1756899692.577931,-779
1756899692.5801961,-805
1756899692.5892208,-835
1756899692.5898209,-844
1756899692.590029,-836
1756899692.5902252,-836
1756899692.590422,-866
1756899692.591662,-916
1756899692.5947683,-951
1756899692.596568,-951
1756899692.597643,-927
1756899692.5996134,-914
1756899692.6015763,-937
1756899692.603502,-990
1756899692.6054232,-1045
1756899692.6073625,-1077
1756899692.6094706,-1085
1756899692.6113153,-1089
1756899692.6133235,-1108
1756899692.6152914,-1142
1756899692.6176443,-1165
1756899692.6217523,-1158
1756899692.6228414,-1123
1756899692.6231582,-1081
1756899692.6250987,-1052
1756899692.627069,-1041
1756899692.6291006,-1039
1756899692.6310542,-1036
1756899692.6331522,-1032
1756899692.635001,-1030
1756899692.6370351,-1030
1756899692.6388643,-1037
1756899692.6408684,-1052
1756899692.642853,-1072
1756899692.644798,-1089
1756899692.647452,-1097
1756899692.6487951,-1104
1756899692.651976,-1127
1756899692.6526017,-1166
1756899692.6546557,-1199
1756899692.656659,-1205
1756899692.6586232,-1180
1756899692.6605234,-1142
1756899692.662495,-1104
1756899692.6645265,-1065
1756899692.6684704,-1017
1756899692.6687355,-971
1756899692.6703057,-944
1756899692.6724079,-940
1756899692.674918,-946
1756899692.6761959,-953
1756899692.6800618,-968
1756899692.6823113,-1003
1756899692.6826613,-1050
1756899692.6842973,-1087
1756899692.686157,-1099
1756899692.688132,-1086
1756899692.690862,-1061
1756899692.6920807,-1040
1756899692.6940222,-1036
1756899692.695933,-1055
1756899692.7006948,-1082
1756899692.7009213,-1087
1756899692.7017937,-1057
1756899692.7037868,-1021
1756899692.7059822,-1022
1756899692.7077043,-1065
1756899692.7096727,-1106
1756899692.7116032,-1102
1756899692.7136035,-1060
1756899692.7159235,-1026
1756899692.7175026,-1025
1756899692.7226193,-1033
1756899692.722869,-1017
1756899692.723486,-987
1756899692.725384,-983
1756899692.7272837,-1018
1756899692.7293086,-1053
1756899692.7312734,-1044
1756899692.734673,-998
1756899692.7374637,-972
1756899692.7377212,-1007
1756899692.7391658,-1073
1756899692.741116,-1109
1756899692.743117,-1089
1756899692.7478986,-1050
1756899692.7481232,-1049
1756899692.748857,-1087
1756899692.7512496,-1120
1756899692.7562895,-1112
1756899692.7565567,-1081
1756899692.7567558,-1067
1756899692.7587652,-1079
1756899692.7608001,-1081
1756899692.7628257,-1047
1756899692.7682943,-997
1756899692.7685692,-974
1756899692.769028,-989
1756899692.7706954,-1009
1756899692.772621,-996
1756899692.774422,-958
1756899692.7764218,-930
1756899692.7783952,-935
1756899692.7803624,-963
1756899692.7823064,-989
1756899692.7842822,-1003
1756899692.7862475,-1004
1756899692.7929215,-991
1756899692.7932034,-969
1756899692.793403,-955
1756899692.7940984,-967
1756899692.7961235,-999
1756899692.7980468,-1018
1756899692.7999954,-1002
1756899692.8023295,-962
1756899692.804003,-936
1756899692.8087378,-944
1756899692.832281,-968
1756899692.8345952,-974
1756899692.8348494,-951
1756899692.8350492,-923
1756899692.8352559,-913
1756899692.8354516,-922
1756899692.8356488,-920
1756899692.8358443,-890
1756899692.8360405,-845
1756899692.8362353,-818
1756899692.8364322,-829
1756899692.8384109,-860
1756899692.8404112,-875
1756899692.8406165,-858
1756899692.8408144,-830
1756899692.8410103,-829
1756899692.841206,-861
1756899692.8414018,-896
1756899692.844153,-896
1756899692.8452046,-869
1756899692.847155,-853
1756899692.853404,-879
1756899692.8536613,-924
1756899692.853859,-951
1756899692.8587165,-947
1756899692.8641214,-944
1756899692.8644056,-967
1756899692.8646052,-1001
1756899692.8648722,-1005
1756899692.8687463,-971
1756899692.8689508,-934
1756899692.869147,-933
1756899692.870741,-959
1756899692.8726559,-967
1756899692.8900301,-932
1756899692.8902817,-879
1756899692.8904803,-847
1756899692.8906767,-842
1756899692.8908734,-837
1756899692.89107,-818
1756899692.8912659,-799
1756899692.891462,-793
1756899692.891688,-782
1756899692.8923187,-738
1756899692.8943481,-674
1756899692.8966296,-643
1756899692.8983135,-680
1756899692.9002836,-752
1756899692.9022408,-789
1756899692.9045997,-764
1756899692.9061887,-717
1756899692.9081573,-708
1756899692.910145,-750
1756899692.9119709,-795
1756899692.9140897,-793
1756899692.9225867,-741
1756899692.9228206,-677
1756899692.9230165,-639
1756899692.9232132,-639
1756899692.9250019,-668
1756899692.9258993,-711
1756899692.948008,-748
1756899692.948571,-765
1756899692.9499192,-754
1756899692.9501235,-727
1756899692.9503913,-703
1756899692.95059,-695
1756899692.9507964,-700
1756899692.9509935,-709
1756899692.9517155,-714
1756899692.9519176,-708
1756899692.9521146,-690
1756899692.9523122,-673
1756899692.9525082,-676
1756899692.9561427,-712
1756899692.95982,-760
1756899692.9600587,-780
1756899692.960258,-749
1756899692.9611025,-691
1756899692.9630806,-649
1756899692.9651084,-642
1756899692.9671657,-649
1756899692.9691205,-635
1756899692.9709318,-596
1756899692.9730613,-556
1756899692.9749699,-540
1756899692.977874,-551
1756899692.978859,-573
1756899692.9863183,-587
1756899692.9868402,-592
1756899692.989073,-597
1756899692.99725,-611
1756899692.9983654,-631
1756899693.0004823,-637
1756899693.0013516,-617
1756899693.0024695,-583
1756899693.0026712,-565
1756899693.0028756,-581
1756899693.0030742,-611
1756899693.00327,-608
1756899693.0043707,-560
1756899693.006294,-512
1756899693.019629,-516
1756899693.01986,-570
1756899693.0201328,-615
1756899693.0205169,-604
1756899693.0207202,-556
1756899693.0209188,-530
1756899693.0211165,-551
1756899693.0227613,-580
1756899693.0240686,-567
1756899693.0259926,-514
1756899693.0312276,-471
1756899693.0319946,-472
1756899693.0590694,-498
1756899693.0680964,-506
1756899693.0782304,-488
1756899693.0790641,-475
1756899693.080285,-488
1756899693.102361,-513
1756899693.1049485,-516
1756899693.1053839,-493
1756899693.1055856,-468
1756899693.105783,-471
1756899693.1059787,-505
1756899693.1061754,-545
1756899693.1063726,-568
1756899693.1065688,-572
1756899693.106764,-569
1756899693.1069598,-569
1756899693.1071582,-579
1756899693.1074092,-591
1756899693.107607,-594
1756899693.1078036,-582
1756899693.107999,-558
1756899693.1082225,-534
1756899693.1084301,-522
1756899693.1086278,-519
1756899693.1088235,-522
1756899693.1090205,-536
1756899693.1092172,-566
1756899693.1094134,-615
1756899693.1096098,-676
1756899693.1098068,-744
1756899693.1100047,-815
1756899693.110201,-885
1756899693.1104016,-945
1756899693.110597,-982
1756899693.1107926,-996
1756899693.1109886,-995
1756899693.1111841,-988
1756899693.11138,-978
1756899693.112232,-970
1756899693.1124308,-975
1756899693.1126258,-997
1756899693.112822,-1028
1756899693.1144288,-1055
1756899693.1164026,-1074
1756899693.1183429,-1099
1756899693.1203618,-1146
1756899693.1226661,-1213
1756899693.124284,-1279
1756899693.1262982,-1329
1756899693.1285567,-1362
1756899693.1440265,-1389
1756899693.1442845,-1417
1756899693.1444821,-1449
1756899693.1446795,-1482
1756899693.1449025,-1520
1756899693.145101,-1568
1756899693.1452978,-1625
1756899693.145496,-1680
1756899693.1477761,-1726
1756899693.1479752,-1763
1756899693.1497588,-1805
1756899693.1518545,-1864
1756899693.1551437,-1931
1756899693.1561363,-1976
1756899693.15769,-1981
1756899693.1597016,-1957
1756899693.1618772,-1937
1756899693.165999,-1940
1756899693.166267,-1954
1756899693.167589,-1959
1756899693.1695244,-1959
1756899693.1724775,-1982
1756899693.176013,-2042
1756899693.176249,-2119
1756899693.177448,-2175
1756899693.1792681,-2205
1756899693.1821983,-2233
1756899693.1835132,-2271
1756899693.1852374,-2300
1756899693.187213,-2290
1756899693.189233,-2244
1756899693.1968098,-2199
1756899693.197036,-2175
1756899693.1972344,-2161
1756899693.197431,-2136
1756899693.200461,-2118
1756899693.2009559,-2140
1756899693.2029321,-2204
1756899693.2049158,-2259
1756899693.2069728,-2259
1756899693.2088714,-2220
1756899693.2107704,-2201
1756899693.2127457,-2230
1756899693.214672,-2264
1756899693.217281,-2237
1756899693.2186458,-2138
1756899693.220649,-2023
1756899693.2481105,-1952
1756899693.2484004,-1934
1756899693.248601,-1940
1756899693.248798,-1955
1756899693.2489955,-1995
1756899693.2491941,-2082
1756899693.2493925,-2215
1756899693.2495894,-2378
1756899693.249785,-2567
1756899693.2499824,-2795
1756899693.2501788,-3060
1756899693.2503767,-3323
1756899693.2505763,-3522
1756899693.2507746,-3612
1756899693.2509732,-3608
1756899693.2536232,-3552
1756899693.2541475,-3479
1756899693.2573006,-3381
1756899693.2579148,-3226
1756899693.2648408,-3006
1756899693.2651048,-2755
1756899693.265301,-2532
1756899693.2659252,-2379
1756899693.2686975,-2291
1756899693.2697108,-2227
1756899693.273091,-2153
1756899693.2736027,-2066
1756899693.2756085,-1988
1756899693.2776697,-1932
1756899693.27959,-1891
1756899693.2818189,-1843
1756899693.2834713,-1783
1756899693.2853842,-1723
1756899693.2873325,-1676
1756899693.289375,-1630
1756899693.3135846,-1570
1756899693.3141217,-1499
1756899693.3208766,-1447
1756899693.321511,-1433
1756899693.3218813,-1432
1756899693.322088,-1403
1756899693.3224266,-1334
1756899693.3236213,-1262
1756899693.3249884,-1230
1756899693.3304932,-1238
1756899693.3308315,-1247
1756899693.3313537,-1225
1756899693.3315785,-1181
1756899693.3317761,-1145
1756899693.3319738,-1124
1756899693.3321705,-1101
1756899693.3323853,-1059
1756899693.3325822,-1003
1756899693.3327796,-948
1756899693.3329759,-903
1756899693.3331723,-864
1756899693.3336477,-832
1756899693.3358035,-814
1756899693.3364525,-807
1756899693.3384955,-798
1756899693.3403895,-782
1756899693.3423917,-764
1756899693.345227,-760
1756899693.3485312,-774
1756899693.3487473,-793
1756899693.350204,-803
1756899693.352175,-802
1756899693.354251,-801
1756899693.3562038,-805
1756899693.3624866,-816
1756899693.3627143,-837
1756899693.3629138,-868
1756899693.3659465,-899
1756899693.36623,-909
1756899693.3679311,-883
1756899693.369952,-832
1756899693.373127,-786
1756899693.3853362,-767
1756899693.386395,-766
1756899693.387434,-757
1756899693.3876512,-723
1756899693.4139917,-676
1756899693.4390028,-647
1756899693.439243,-653
1756899693.439686,-684
1756899693.4398847,-712
1756899693.4409468,-708
1756899693.442018,-675
1756899693.4423447,-639
1756899693.4425797,-629
1756899693.442777,-651
1756899693.4430194,-682
1756899693.4445677,-693
1756899693.445104,-673
1756899693.4454036,-635
1756899693.4465253,-610
1756899693.449237,-619
1756899693.449853,-654
1756899693.4500566,-684
1756899693.4502861,-680
1756899693.4504836,-643
1756899693.45069,-607
1756899693.4508874,-613
1756899693.4511442,-662
1756899693.4516883,-716
1756899693.4525692,-726
1756899693.452995,-685
1756899693.4533968,-632
1756899693.4537995,-615
1756899693.453999,-640
1756899693.4551558,-671
1756899693.4556723,-666
1756899693.4565911,-624
1756899693.4567971,-581
1756899693.4570034,-570
1756899693.4571998,-586
1756899693.457407,-602
1756899693.457849,-604
1756899693.4580493,-604
1756899693.4583087,-621
1756899693.458508,-650
1756899693.4606485,-665
1756899693.4622796,-654
1756899693.4667466,-632
1756899693.4671407,-626
1756899693.4686677,-640
1756899693.4721532,-654
1756899693.472585,-651
1756899693.4744453,-636
1756899693.4761243,-632
1756899693.4787107,-646
1756899693.4845352,-668
1756899693.4847996,-690
1756899693.4850452,-711
1756899693.4860504,-736
1756899693.487799,-760
1756899693.4899108,-777
1756899693.491801,-785
1756899693.4940457,-785
1756899693.4974208,-774
1756899693.498031,-745
1756899693.4997737,-706
1756899693.5015302,-677
1756899693.5038452,-672
1756899693.510067,-685
1756899693.5140097,-692
1756899693.5144255,-689
1756899693.5157962,-695
1756899693.5160103,-725
1756899693.5162163,-767
1756899693.5210464,-793
1756899693.5212622,-791
1756899693.5214896,-774
1756899693.5231848,-759
1756899693.5264695,-747
1756899693.5271308,-728
1756899693.52905,-703
1756899693.5309997,-684
1756899693.5403059,-678
1756899693.5411303,-678
1756899693.5414095,-678
1756899693.5419683,-681
1756899693.5421712,-689
1756899693.5428703,-692
1756899693.5447755,-674
1756899693.5469306,-638
1756899693.548877,-605
1756899693.550723,-593
1756899693.552786,-593
1756899693.5545747,-580
1756899693.5570846,-544
1756899693.558676,-498
1756899693.5604618,-467
1756899693.5625184,-466
1756899693.564451,-495
1756899693.5666187,-530
1756899693.573602,-543
1756899693.5739877,-520
1756899693.5758972,-481
1756899693.5790215,-460
1756899693.580794,-471
1756899693.5810313,-489
1756899693.5812318,-475
1756899693.5822518,-426
1756899693.5843043,-381
1756899693.5875366,-371
1756899693.588778,-382
1756899693.5902205,-375
1756899693.5919359,-338
1756899693.5941207,-310
1756899693.5959282,-328
1756899693.5980704,-391
1756899693.6100574,-451
1756899693.610375,-472
1756899693.610577,-461
1756899693.6107755,-464
1756899693.610973,-512
1756899693.6111703,-590
1756899693.6118681,-652
1756899693.614298,-652
1756899693.6158729,-593
1756899693.6174912,-520
1756899693.6194408,-489
1756899693.6214564,-513
1756899693.6236987,-547
1756899693.6259513,-542
1756899693.6273038,-497
1756899693.6298902,-455
1756899693.6312373,-457
1756899693.633803,-493
1756899693.635262,-522
1756899693.6371675,-524
1756899693.6410542,-520
1756899693.6414459,-537
1756899693.6436958,-566
1756899693.645556,-576
1756899693.6500106,-555
1756899693.650298,-534
1756899693.6509655,-549
1756899693.6529427,-594
1756899693.6549559,-629
1756899693.6569242,-625
1756899693.658811,-598
1756899693.6608727,-583
1756899693.6627593,-594
1756899693.6647575,-617
1756899693.6677318,-633
1756899693.6691816,-641
1756899693.678817,-648
1756899693.6857743,-652
1756899693.6861024,-645
1756899693.6863792,-631
1756899693.6865804,-623
1756899693.6867783,-626
1756899693.6869755,-632
1756899693.6871715,-628
1756899693.6876063,-618
1756899693.6882682,-619
1756899693.6901968,-637
1756899693.6921787,-659
1756899693.69413,-665
1756899693.6961565,-658
1756899693.6980963,-661
1756899693.7004528,-692
1756899693.706163,-735
1756899693.7067864,-755
1756899693.7071311,-734
1756899693.7220566,-700
1756899693.7224736,-692
1756899693.7226849,-719
1756899693.722883,-744
1756899693.723914,-729
1756899693.724116,-682
1756899693.7243114,-647
1756899693.724514,-648
1756899693.7247107,-658
1756899693.7258863,-641
1756899693.7278495,-599
1756899693.7298303,-574
1756899693.7318113,-593
1756899693.7338517,-637
1756899693.735914,-665
1756899693.7574239,-667
1756899693.75769,-673
1756899693.7580078,-712
1756899693.758427,-767
1756899693.7587461,-801
1756899693.758949,-795
1756899693.7591465,-765
1756899693.759343,-741
1756899693.7595391,-731
1756899693.7597356,-727
1756899693.7599313,-730
1756899693.7625098,-746
1756899693.7627206,-777
1756899693.7629168,-810
1756899693.7649682,-828
1756899693.7668955,-833
1756899693.768853,-846
1756899693.7708225,-881
1756899693.7746253,-924
1756899693.7751424,-942
1756899693.7779822,-922
1756899693.7792752,-883
1756899693.7806602,-864
1756899693.7826319,-879
1756899693.7845826,-901
1756899693.8030777,-895
1756899693.8031836,-861
1756899693.803261,-835
1756899693.803337,-851
1756899693.8034112,-896
1756899693.8055017,-933
1756899693.8062918,-936
1756899693.8069277,-921
1756899693.8079398,-915
1756899693.8083723,-923
1756899693.8088331,-932
1756899693.8091314,-931
1756899693.8103042,-923
1756899693.8122172,-916
1756899693.814133,-911
1756899693.8165965,-908
1756899693.8179832,-912
1756899693.8229597,-925
1756899693.8231964,-947
1756899693.8238323,-971
1756899693.8265731,-997
1756899693.8280883,-1029
1756899693.8299098,-1061
1756899693.831802,-1082
1756899693.8338203,-1084
1756899693.8358154,-1083
1756899693.839087,-1100
1756899693.8397958,-1132
1756899693.8417509,-1151
1756899693.8437004,-1137
1756899693.8454726,-1102
1756899693.8642082,-1083
1756899693.8645706,-1101
1756899693.8647714,-1139
1756899693.86501,-1160
1756899693.8652706,-1151
1756899693.865804,-1136
1756899693.8667333,-1148
1756899693.8670313,-1185
1756899693.870813,-1216
1756899693.8716767,-1216
1756899693.875824,-1203
1756899693.8761675,-1214
1756899693.8764076,-1268
1756899693.8766131,-1335
1756899693.8790083,-1369
1756899693.880661,-1360
1756899693.8808823,-1341
1756899693.8811295,-1349
1756899693.8828971,-1381
1756899693.8850043,-1402
1756899693.886815,-1391
1756899693.8928287,-1364
1756899693.8930728,-1348
1756899693.8932853,-1348
1756899693.894578,-1348
1756899693.8965487,-1341
1756899693.8985002,-1345
1756899693.9005148,-1371
1756899693.9024267,-1407
1756899693.9044092,-1421
1756899693.9097583,-1407
1756899693.910027,-1386
1756899693.910314,-1385
1756899693.9122856,-1403
1756899693.9142234,-1420
1756899693.9162145,-1426
1756899693.9181817,-1435
1756899693.9304185,-1451
1756899693.9306998,-1460
1756899693.9308984,-1442
1756899693.9311042,-1410
1756899693.9325132,-1397
1756899693.932737,-1420
1756899693.9330301,-1449
1756899693.9340098,-1449
1756899693.9359398,-1416
1756899693.9518027,-1386
1756899693.9521594,-1386
1756899693.9524522,-1404
1756899693.9527564,-1415
1756899693.9530566,-1416
1756899693.9533741,-1426
1756899693.9538586,-1452
1756899693.9541047,-1467
1756899693.954343,-1446
1756899693.9557781,-1398
1756899693.9578235,-1358
1756899693.9598582,-1352
1756899693.9614515,-1370
1756899693.963603,-1389
1756899693.9664977,-1391
1756899693.9672976,-1379
1756899693.9695513,-1364
1756899693.971244,-1357
1756899693.97332,-1366
1756899693.976802,-1393
1756899693.9771838,-1423
1756899693.98137,-1430
1756899693.9821036,-1404
1756899693.9831305,-1364
1756899693.9850373,-1346
1756899693.9870484,-1363
1756899694.0055585,-1391
1756899694.0059903,-1393
1756899694.0062504,-1361
1756899694.0089107,-1320
1756899694.0130029,-1301
1756899694.0132532,-1308
1756899694.013455,-1320
1756899694.0138252,-1316
1756899694.0140262,-1296
1756899694.022981,-1282
1756899694.023604,-1295
1756899694.023854,-1335
1756899694.0240633,-1378
1756899694.0243702,-1402
1756899694.024577,-1406
1756899694.0251813,-1409
1756899694.0268788,-1424
1756899694.027092,-1441
1756899694.0276372,-1445
1756899694.0278409,-1440
1756899694.0282571,-1453
1756899694.0301957,-1500
1756899694.0321522,-1554
1756899694.034153,-1574
1756899694.0360885,-1553
1756899694.0409274,-1536
1756899694.0411582,-1567
1756899694.0419934,-1637
1756899694.0473125,-1697
1756899694.0480118,-1713
1756899694.0483308,-1715
1756899694.0499349,-1762
1756899694.051916,-1886
1756899694.0539362,-2063
1756899694.0557857,-2250
1756899694.0580573,-2430
1756899694.0688317,-2626
1756899694.0704608,-2871
1756899694.0733154,-3155
1756899694.0738864,-3430
1756899694.0742154,-3644
1756899694.075774,-3779
1756899694.0760176,-3854
1756899694.0762196,-3880
1756899694.0764248,-3847
1756899694.0774326,-3734
1756899694.0796614,-3549
1756899694.0812638,-3330
1756899694.0901582,-3123
1756899694.0903986,-2949
1756899694.0906122,-2808
1756899694.0908108,-2706
1756899694.0911057,-2647
1756899694.093211,-2627
1756899694.0950663,-2629
1756899694.097093,-2643
1756899694.099085,-2668
1756899694.100951,-2696
1756899694.1029034,-2700
1756899694.105043,-2662
1756899694.107877,-2592
1756899694.1088383,-2522
1756899694.1108322,-2467
1756899694.1127512,-2419
1756899694.1147313,-2374
1756899694.116788,-2350
1756899694.1186395,-2365
1756899694.1206741,-2404
1756899694.1227634,-2429
1756899694.1247008,-2424
1756899694.1266596,-2413
1756899694.1286113,-2421
1756899694.1306212,-2432
1756899694.1325607,-2406
1756899694.1345367,-2340
1756899694.1365802,-2278
1756899694.1596076,-2267
1756899694.1599736,-2306
1756899694.1601846,-2347
1756899694.1603818,-2349
1756899694.16058,-2317
1756899694.1607873,-2285
1756899694.1612144,-2277
1756899694.1614995,-2287
1756899694.162135,-2290
1756899694.1623545,-2267
1756899694.1625514,-2216
1756899694.1627474,-2156
1756899694.1629446,-2109
1756899694.1638904,-2090
1756899694.1661208,-2100
1756899694.1679335,-2127
1756899694.176956,-2156
1756899694.1788485,-2169
1756899694.179348,-2162
1756899694.1795554,-2148
1756899694.179753,-2153
1756899694.1799498,-2188
1756899694.1815379,-2228
1756899694.1835747,-2227
1756899694.1865273,-2175
1756899694.18741,-2115
1756899694.1894271,-2110
1756899694.1914597,-2170
1756899694.194114,-2236
1756899694.2004788,-2244
1756899694.2007868,-2190
1756899694.2014074,-2135
1756899694.2017205,-2123
1756899694.2052512,-2144
1756899694.2054834,-2145
1756899694.2070546,-2100
1756899694.210424,-2035
1756899694.2109976,-1998
1756899694.2129624,-2008
1756899694.2151315,-2047
1756899694.2174,-2081
1756899694.2225566,-2092
1756899694.222775,-2089
1756899694.2229736,-2095
1756899694.224732,-2121
1756899694.226764,-2159
1756899694.2298167,-2186
1756899694.2305977,-2186
1756899694.2326658,-2170
1756899694.2345767,-2157
1756899694.2365315,-2154
1756899694.2385488,-2154
1756899694.2405121,-2144
1756899694.2440288,-2129
1756899694.244372,-2121
1756899694.2464223,-2115
1756899694.2483263,-2096
1756899694.2503414,-2060
1756899694.2522984,-2017
1756899694.2542744,-1977
1756899694.259957,-1936
1756899694.260184,-1894
1756899694.2603824,-1865
1756899694.262202,-1858
1756899694.2641878,-1865
1756899694.2661564,-1869
1756899694.267972,-1867
1756899694.27,-1878
1756899694.2738388,-1905
1756899694.2740395,-1920
1756899694.278914,-1896
1756899694.2791631,-1850
1756899694.2798216,-1827
1756899694.2829614,-1838
1756899694.2837024,-1847
1756899694.2860377,-1818
1756899694.2883856,-1767
1756899694.2895713,-1745
1756899694.2916806,-1769
1756899694.293563,-1801
1756899694.2955673,-1803
1756899694.297497,-1783
1756899694.2994885,-1781
1756899694.3031085,-1805
1756899694.3033206,-1818
1756899694.3053653,-1795
1756899694.307274,-1758
1756899694.3110588,-1754
1756899694.311313,-1788
1756899694.313373,-1813
1756899694.3153496,-1785
1756899694.3171217,-1716
1756899694.3209279,-1668
1756899694.3211327,-1682
1756899694.3230507,-1734
1756899694.3251264,-1763
1756899694.3269672,-1738
1756899694.3289924,-1685
1756899694.3309636,-1657
1756899694.33295,-1670
1756899694.3349206,-1698
1756899694.3368356,-1706
1756899694.338783,-1689
1756899694.3407855,-1666
1756899694.3432443,-1652
1756899694.35692,-1641
1756899694.3572145,-1624
1756899694.3576066,-1600
1756899694.3622742,-1576
1756899694.3625307,-1556
1756899694.3627288,-1545
1756899694.3629246,-1554
1756899694.3631217,-1586
1756899694.3633163,-1619
1756899694.363511,-1619
1756899694.364263,-1581
1756899694.366358,-1542
1756899694.3683374,-1540
1756899694.3703518,-1565
1756899694.3722677,-1565
1756899694.3775334,-1509
1756899694.37776,-1424
1756899694.378254,-1369
1756899694.3811724,-1368
1756899694.3821151,-1398
1756899694.384152,-1412
1756899694.3859692,-1388
1756899694.3956513,-1343
1756899694.395928,-1310
1756899694.3961265,-1304
1756899694.3963242,-1316
1756899694.3965223,-1324
1756899694.3976655,-1312
1756899694.3997636,-1290
1756899694.4049735,-1277
1756899694.405201,-1282
1756899694.4055767,-1297
1756899694.4075994,-1307
1756899694.4094708,-1306
1756899694.4146426,-1302
1756899694.4149227,-1306
1756899694.4158888,-1314
1756899694.4184456,-1319
1756899694.4193156,-1317
1756899694.4212592,-1313
1756899694.4263227,-1309
1756899694.4270022,-1307
1756899694.4272294,-1307
1756899694.4291945,-1304
1756899694.43115,-1301
1756899694.4331071,-1301
1756899694.4351275,-1311
1756899694.4370427,-1328
1756899694.449573,-1342
1756899694.4505925,-1343
1756899694.4529774,-1333
1756899694.4531834,-1330
1756899694.4533787,-1343
1756899694.453575,-1366
1756899694.4537709,-1381
1756899694.4551446,-1379
1756899694.4563406,-1362
1756899694.4566667,-1339
1756899694.4635098,-1319
1756899694.4637387,-1307
1756899694.4639356,-1306
1756899694.4645596,-1308
1756899694.4665012,-1301
1756899694.46843,-1278
1756899694.4704404,-1248
1756899694.473049,-1230
1756899694.4743104,-1233
1756899694.4817708,-1248
1756899694.4820995,-1260
1756899694.4829805,-1262
1756899694.4853685,-1264
1756899694.4967918,-1276
1756899694.503479,-1301
1756899694.503731,-1330
1756899694.503929,-1356
1756899694.5041294,-1372
1756899694.5043266,-1378
1756899694.5045223,-1377
1756899694.504719,-1370
1756899694.5049436,-1356
1756899694.505142,-1337
1756899694.5053394,-1325
1756899694.5058181,-1337
1756899694.508004,-1369
1756899694.5097888,-1404
1756899694.5117395,-1424
1756899694.5136826,-1432
1756899694.5167043,-1438
1756899694.5202665,-1447
1756899694.5205464,-1442
1756899694.5216236,-1417
1756899694.5234852,-1383
1756899694.5255816,-1362
1756899694.5294676,-1349
1756899694.5296843,-1324
1756899694.5313163,-1288
1756899694.5333207,-1277
1756899694.5353694,-1326
1756899694.5371952,-1417
1756899694.539242,-1490
1756899694.541126,-1508
1756899694.5431576,-1502
1756899694.545105,-1529
1756899694.54708,-1598
1756899694.5490525,-1655
1756899694.5550158,-1645
1756899694.5553257,-1586
1756899694.5555792,-1544
1756899694.558669,-1555
1756899694.5588846,-1585
1756899694.5609014,-1573
1756899694.5629323,-1512
1756899694.5651646,-1452
1756899694.5668814,-1449
1756899694.5687108,-1496
1756899694.5708525,-1539
1756899694.572781,-1541
1756899694.5747428,-1519
1756899694.579337,-1516
1756899694.5795941,-1545
1756899694.5804787,-1577
1756899694.5923202,-1573
1756899694.592588,-1536
1756899694.5929196,-1501
1756899694.5931437,-1496
1756899694.5933912,-1504
1756899694.5936592,-1490
1756899694.5948877,-1444
1756899694.596159,-1399
1756899694.5981135,-1391
1756899694.6000965,-1417
1756899694.6021512,-1436
1756899694.6040258,-1418
1756899694.6061213,-1380
1756899694.607961,-1364
1756899694.6099772,-1389
1756899694.6119986,-1428
1756899694.6140513,-1446
1756899694.6177986,-1435
1756899694.6180103,-1421
1756899694.6205945,-1426
1756899694.6230755,-1440
1756899694.6237173,-1440
1756899694.6275818,-1420
1756899694.6303067,-1399
1756899694.632592,-1395
1756899694.633129,-1406
1756899694.6365428,-1410
1756899694.6368017,-1399
1756899694.637444,-1386
1756899694.6395338,-1387
1756899694.641657,-1402
1756899694.646457,-1418
1756899694.6466918,-1427
1756899694.6472182,-1429
1756899694.6492617,-1429
1756899694.6526341,-1430
1756899694.6548433,-1435
1756899694.6551092,-1446
1756899694.6571326,-1465
1756899694.659243,-1484
1756899694.661297,-1499
1756899694.663473,-1514
1756899694.6650996,-1532
1756899694.6671188,-1553
1756899694.6690023,-1565
1756899694.671026,-1564
1756899694.6730533,-1558
1756899694.6779895,-1556
1756899694.6782267,-1557
1756899694.678924,-1551
1756899694.680785,-1533
1756899694.6848435,-1510
1756899694.6905992,-1489
1756899694.6909852,-1475
1756899694.6911905,-1467
1756899694.6913867,-1464
1756899694.6924655,-1460
1756899694.694435,-1443
1756899694.6966445,-1412
1756899694.700066,-1385
1756899694.7005,-1386
1756899694.7023807,-1412
1756899694.704474,-1429
1756899694.7064922,-1411
1756899694.7084274,-1372
1756899694.7103496,-1355
1756899694.7122583,-1380
1756899694.714698,-1416
1756899694.7162187,-1417
1756899694.7224114,-1375
1756899694.7226517,-1330
1756899694.7228506,-1321
1756899694.723908,-1340
1756899694.7259877,-1348
1756899694.7279441,-1327
1756899694.7299705,-1301
1756899694.7375908,-1304
1756899694.7387884,-1336
1756899694.7390084,-1369
1756899694.7392068,-1383
1756899694.7398286,-1391
1756899694.7417936,-1420
1756899694.7439172,-1474
1756899694.7456894,-1531
1756899694.75492,-1558
1756899694.7561421,-1553
1756899694.7563531,-1535
1756899694.7565482,-1531
1756899694.756748,-1547
1756899694.7575197,-1569
1756899694.7595048,-1575
1756899694.7613301,-1552
1756899694.7634742,-1510
1756899694.7704678,-1478
1756899694.7759216,-1480
1756899694.77617,-1510
1756899694.776367,-1535
1756899694.7765636,-1528
1756899694.7767606,-1501
1756899694.7772393,-1496
1756899694.7789805,-1532
1756899694.7808728,-1583
1756899694.7891312,-1603
1756899694.7895136,-1587
1756899694.7897153,-1571
1756899694.7899122,-1592
1756899694.7924325,-1634
1756899694.7926722,-1649
1756899694.794708,-1615
1756899694.7966743,-1567
1756899694.7986584,-1553
1756899694.8006063,-1576
1756899694.8025846,-1596
1756899694.8045378,-1584
1756899694.8065033,-1554
1756899694.8096232,-1539
1756899694.8105366,-1546
1756899694.8125606,-1554
1756899694.8227096,-1544
1756899694.8238904,-1529
1756899694.8240998,-1519
1756899694.8242967,-1507
1756899694.8244936,-1477
1756899694.8246899,-1443
1756899694.8261864,-1441
1756899694.8282576,-1475
1756899694.830168,-1500
1756899694.8322234,-1472
1756899694.8345187,-1406
1756899694.8402088,-1363
1756899694.8411694,-1378
1756899694.8413894,-1410
1756899694.8419967,-1400
1756899694.8438842,-1340
1756899694.8458364,-1284
1756899694.8477082,-1279
1756899694.86154,-1312
1756899694.8627186,-1340
1756899694.862925,-1342
1756899694.863122,-1328
1756899694.8633256,-1310
1756899694.8635223,-1282
1756899694.8637195,-1246
1756899694.8639166,-1222
1756899694.8654566,-1224
1756899694.8710968,-1233
1756899694.8800166,-1220
1756899694.8802452,-1194
1756899694.8804443,-1203
1756899694.8806405,-1288
1756899694.8811548,-1431
1756899694.8814003,-1580
1756899694.8816247,-1713
1756899694.8876233,-1861
1756899694.8880086,-2066
1756899694.8887253,-2328
1756899694.8904276,-2599
1756899694.8910093,-2820
1756899694.8998752,-2964
1756899694.900113,-3034
1756899694.900312,-3052
1756899694.9005096,-3030
1756899694.9007695,-2969
1756899694.9027357,-2854
1756899694.9049377,-2676
1756899694.9067023,-2455
1756899694.9087782,-2239
1756899694.9106045,-2069
1756899694.9127102,-1950
1756899694.9168768,-1862
1756899694.9171057,-1791
1756899694.9234743,-1747
1756899694.923707,-1742
1756899694.9239063,-1758
1756899694.924424,-1760
1756899694.926446,-1735
1756899694.9284399,-1707
1756899694.9304817,-1706
1756899694.9324489,-1726
1756899694.9343822,-1726
1756899694.9459333,-1677
1756899694.9462838,-1595
1756899694.9466045,-1519
1756899694.9476702,-1476
1756899694.947902,-1454
1756899694.9480999,-1428
1756899694.9483771,-1383
1756899694.9499972,-1325
1756899694.956187,-1269
1756899694.9565434,-1226
1756899694.9566512,-1206
1756899694.958564,-1208
1756899694.9596357,-1211
1756899694.9616065,-1193
1756899694.9635231,-1149
1756899694.9654949,-1099
1756899694.9675097,-1069
1756899694.9745853,-1058
1756899694.9752083,-1043
1756899694.9756444,-1015
1756899694.9758217,-996
1756899694.9787273,-1007
1756899694.9792652,-1038
1756899694.9812264,-1050
1756899694.9832795,-1024
1756899694.9859135,-986
1756899694.9872687,-974
1756899694.989584,-979
1756899694.9915552,-958
1756899694.9931507,-884
1756899694.9950876,-798
1756899694.997461,-767
1756899695.0166051,-806
1756899695.0175831,-865
1756899695.0178099,-886
1756899695.0180082,-872
1756899695.0182285,-876
1756899695.0184257,-925
1756899695.0186212,-983
1756899695.018817,-993
1756899695.0190134,-953
1756899695.01921,-912
1756899695.0194058,-913
1756899695.0207956,-935
1756899695.023224,-931
1756899695.0245874,-884
1756899695.0266407,-832
1756899695.0297685,-822
1756899695.0306964,-858
1756899695.0340848,-903
1756899695.0344486,-923
1756899695.0371177,-921
1756899695.0385704,-920
1756899695.0472212,-937
1756899695.0474813,-966
1756899695.0489395,-995
1756899695.0492842,-1022
1756899695.0526776,-1044
1756899695.052931,-1051
1756899695.053128,-1034
1756899695.054538,-1003
1756899695.0561743,-988
1756899695.0581155,-1007
1756899695.0609143,-1041
1756899695.0786433,-1047
1756899695.0788653,-1010
1756899695.0790718,-963
1756899695.079269,-955
1756899695.079742,-992
1756899695.0799382,-1023
1756899695.0801444,-1000
1756899695.0803392,-932
1756899695.0805445,-875
1756899695.0807393,-869
1756899695.081804,-891
1756899695.0837228,-894
1756899695.0883043,-862
1756899695.0897098,-825
1756899695.089919,-821
1756899695.091753,-850
1756899695.0933635,-881
1756899695.0962992,-885
1756899695.0973473,-872
1756899695.0996914,-872
1756899695.101201,-898
1756899695.1038487,-927
1756899695.10547,-921
1756899695.1072116,-864
1756899695.1091602,-790
1756899695.1111014,-754
1756899695.113126,-780
1756899695.127742,-828
1756899695.1280441,-832
1756899695.1284819,-772
1756899695.1287093,-702
1756899695.1290696,-695
1756899695.129969,-769
1756899695.1317618,-864
1756899695.1321578,-909
1756899695.1323586,-892
1756899695.1326787,-860
1756899695.134643,-860
1756899695.1366758,-889
1756899695.1386466,-909
1756899695.1405618,-893
1756899695.1432004,-852
1756899695.1447713,-815
1756899695.146593,-797
1756899695.148544,-790
1756899695.1505198,-785
1756899695.1524324,-781
1756899695.154467,-787
1756899695.1568305,-808
1756899695.1583579,-839
1756899695.1602647,-869
1756899695.1626809,-883
1756899695.1641512,-877
1756899695.1660926,-859
1756899695.1680593,-850
1756899695.1700084,-859
1756899695.1720407,-872
1756899695.1739755,-867
1756899695.1759653,-835
1756899695.1779718,-788
1756899695.1798747,-747
1756899695.1819685,-723
1756899695.1839213,-713
1756899695.1908412,-715
1756899695.1912417,-725
1756899695.1918004,-734
1756899695.1920006,-723
1756899695.1948776,-693
1756899695.1957724,-666
1756899695.1983588,-662
1756899695.1997967,-673
1756899695.2020762,-669
1756899695.203977,-637
1756899695.2098079,-595
1756899695.210032,-576
1756899695.2102304,-583
1756899695.2112834,-594
1756899695.2132478,-590
1756899695.215601,-579
1756899695.217188,-582
1756899695.21916,-599
1756899695.2213407,-609
1756899695.2250528,-590
1756899695.2257812,-554
1756899695.227071,-528
1756899695.2289913,-526
1756899695.2316246,-539
1756899695.233066,-543
1756899695.2350504,-531
1756899695.2369592,-515
1756899695.2388754,-507
1756899695.2408369,-511
1756899695.2431633,-517
1756899695.2448509,-518
1756899695.2466533,-510
1756899695.2486324,-496
1756899695.250587,-479
1756899695.2526588,-468
1756899695.2592278,-467
1756899695.2597497,-473
1756899695.2599514,-476
1756899695.2605338,-467
1756899695.2627563,-457
1756899695.2643893,-470
1756899695.268991,-512
1756899695.2693627,-554
1756899695.2720237,-556
1756899695.272237,-516
1756899695.274238,-484
1756899695.2761462,-511
1756899695.2820692,-590
1756899695.2823102,-650
1756899695.2825105,-631
1756899695.2841308,-553
1756899695.285966,-498
1756899695.287995,-522
1756899695.289973,-599
1756899695.2920146,-648
1756899695.2938886,-626
1756899695.2985678,-568
1756899695.2988358,-541
1756899695.2999158,-572
1756899695.3019588,-623
1756899695.30379,-649
1756899695.3058453,-643
1756899695.3077362,-639
1756899695.3097098,-661
1756899695.3117898,-693
1756899695.3137026,-704
1756899695.3157191,-687
1756899695.3173578,-669
1756899695.3195744,-681
1756899695.3213563,-720
1756899695.3236475,-750
1756899695.337173,-747
1756899695.3440113,-724
1756899695.3445656,-720
1756899695.3449478,-753
1756899695.3451478,-807
1756899695.3454003,-846
1756899695.3458352,-851
1756899695.3460343,-839
1756899695.3462393,-842
1756899695.3465092,-875
1756899695.346743,-922
1756899695.3469722,-965
1756899695.348924,-994
1756899695.3508217,-1010
1756899695.3529286,-1013
1756899695.354746,-1003
1756899695.3567443,-986
1756899695.3587744,-977
1756899695.3606555,-979
1756899695.3652053,-982
1756899695.388593,-974
1756899695.388879,-964
1756899695.389077,-967
1756899695.3892734,-980
1756899695.3894677,-976
1756899695.396983,-934
1756899695.4005716,-871
1756899695.4011307,-829
1756899695.4013326,-820
1756899695.4015582,-814
1756899695.4017575,-774
1756899695.4019542,-715
1756899695.40215,-692
1756899695.4023447,-738
1756899695.4025407,-820
1756899695.4027386,-877
1756899695.402935,-883
1756899695.4031322,-874
1756899695.4033282,-893
1756899695.403743,-936
1756899695.4092977,-965
1756899695.4129357,-952
1756899695.4208696,-916
1756899695.4213278,-899
1756899695.4216032,-915
1756899695.4218025,-944
1756899695.4221387,-957
1756899695.4223359,-957
1756899695.422532,-968
1756899695.4227293,-1010
1756899695.424409,-1072
1756899695.4254558,-1116
1756899695.4276705,-1123
1756899695.4295068,-1109
1756899695.4327335,-1114
1756899695.4334924,-1160
1756899695.4360464,-1225
1756899695.43735,-1267
1756899695.43935,-1266
1756899695.4424977,-1243
1756899695.4432523,-1233
1756899695.4467425,-1243
1756899695.4487758,-1252
1756899695.4491692,-1245
1756899695.4512084,-1227
1756899695.4532027,-1219
1756899695.455381,-1227
1756899695.4571764,-1245
1756899695.4590065,-1268
1756899695.4610393,-1300
1756899695.472683,-1339
1756899695.4951577,-1373
1756899695.4959278,-1392
1756899695.4972062,-1406
1756899695.4995904,-1429
1756899695.4998055,-1456
1756899695.5000434,-1462
1756899695.5002568,-1444
1756899695.5004766,-1433
1756899695.5038695,-1464
1756899695.504589,-1527
1756899695.506816,-1565
1756899695.5070884,-1542
1756899695.5075731,-1486
1756899695.5152726,-1461
1756899695.5156841,-1498
1756899695.5159125,-1555
1756899695.516128,-1571
1756899695.5163786,-1532
1756899695.5168493,-1482
1756899695.5170522,-1476
1756899695.5172486,-1518
1756899695.5174444,-1573
1756899695.5176413,-1610
1756899695.5179715,-1624
1756899695.5181978,-1633
1756899695.5183966,-1639
1756899695.5185914,-1638
1756899695.5187862,-1625
1756899695.5206592,-1604
1756899695.5219326,-1577
1756899695.5259256,-1533
1756899695.526312,-1469
1756899695.5568318,-1396
1756899695.5571404,-1343
1756899695.5573606,-1327
1756899695.5587988,-1342
1756899695.5591683,-1368
1756899695.5593693,-1391
1756899695.559565,-1418
1756899695.5598695,-1461
1756899695.5601237,-1526
1756899695.560441,-1598
1756899695.560788,-1654
1756899695.563466,-1678
1756899695.56432,-1674
1756899695.565001,-1659
1756899695.5697281,-1643
1756899695.569954,-1629
1756899695.5701568,-1612
1756899695.5703561,-1593
1756899695.5705528,-1578
1756899695.570801,-1568
1756899695.571569,-1562
1756899695.5717702,-1561
1756899695.5719688,-1576
1756899695.5729523,-1607
1756899695.5753884,-1639
1756899695.5769334,-1651
1756899695.5796204,-1637
1756899695.5808477,-1618
1756899695.584339,-1615
1756899695.5849087,-1630
1756899695.6131983,-1648
1756899695.6163738,-1659
1756899695.6166594,-1668
1756899695.6168616,-1681
1756899695.6170578,-1697
1756899695.6183896,-1715
1756899695.6185896,-1728
1756899695.6189616,-1732
1756899695.619166,-1716
1756899695.619363,-1680
1756899695.6195605,-1646
1756899695.6197572,-1631
1756899695.619954,-1627
1756899695.620151,-1601
1756899695.620347,-1547
1756899695.6205418,-1499
1756899695.6210825,-1505
1756899695.6242754,-1559
1756899695.626874,-1604
1756899695.628175,-1594
1756899695.628517,-1541
1756899695.6290417,-1502
1756899695.6299417,-1502
1756899695.631912,-1511
1756899695.6338692,-1482
1756899695.6416523,-1412
1756899695.6418822,-1338
1756899695.6420817,-1298
1756899695.6422787,-1287
1756899695.643731,-1282
1756899695.6457448,-1274
1756899695.6477554,-1283
1756899695.65276,-1324
1756899695.6543875,-1376
1756899695.654619,-1404
1756899695.6557388,-1393
1756899695.6576257,-1374
1756899695.6594534,-1386
1756899695.6614232,-1434
1756899695.6633697,-1479
1756899695.665378,-1478
1756899695.667601,-1432
1756899695.685014,-1384
1756899695.6852825,-1369
1756899695.6855028,-1377
1756899695.6857247,-1375
1756899695.686331,-1345
1756899695.6866145,-1308
1756899695.688353,-1297
1756899695.6885636,-1320
1756899695.6887624,-1366
1756899695.6889596,-1434
1756899695.6891568,-1539
1756899695.6909478,-1692
1756899695.6930716,-1884
1756899695.6948373,-2090
1756899695.6971552,-2300
1756899695.6992135,-2520
1756899695.701727,-2749
1756899695.7028902,-2958
1756899695.7057915,-3113
1756899695.7080426,-3197
1756899695.709099,-3216
1756899695.710545,-3183
1756899695.7126334,-3095
1756899695.7144516,-2951
1756899695.7166796,-2769
1756899695.71835,-2574
1756899695.7202911,-2387
1756899695.722372,-2214
1756899695.7242012,-2065
1756899695.7261655,-1958
1756899695.7282345,-1899
1756899695.7301748,-1866
1756899695.7394254,-1826
1756899695.7399497,-1769
1756899695.7401927,-1715
1756899695.7404003,-1687
1756899695.7406023,-1675
1756899695.7420232,-1641
1756899695.7439435,-1561
1756899695.761282,-1450
1756899695.7616208,-1352
1756899695.761878,-1298
1756899695.7621245,-1283
1756899695.762369,-1277
1756899695.7626112,-1250
1756899695.7628543,-1197
1756899695.7630947,-1145
1756899695.7634392,-1124
1756899695.763752,-1133
1756899695.7671156,-1143
1756899695.7677038,-1120
1756899695.769669,-1072
1756899695.7718687,-1036
1756899695.7806659,-1030
1756899695.78093,-1035
1756899695.7811341,-1020
1756899695.7813306,-982
1756899695.7815564,-953
1756899695.7832627,-959
1756899695.7852752,-981
1756899695.7871823,-975
1756899695.7892256,-931
1756899695.7911353,-883
1756899695.793158,-874
1756899695.7949755,-910
1756899695.7970214,-957
1756899695.7995303,-982
1756899695.8009596,-979
1756899695.803679,-962
1756899695.8110776,-940
1756899695.8113642,-915
1756899695.8116055,-891
1756899695.8118129,-878
1756899695.812763,-880
1756899695.8209493,-884
1756899695.821246,-875
1756899695.8214967,-851
1756899695.8217397,-826
1756899695.8224616,-815
1756899695.8247979,-827
1756899695.8264089,-858
1756899695.8284833,-897
1756899695.8305745,-920
1756899695.8330462,-909
1756899695.8394334,-865
1756899695.8396735,-825
1756899695.8398752,-824
1756899695.840725,-855
1756899695.8454363,-873
1756899695.845681,-842
1756899695.846179,-784
1756899695.8480468,-754
1756899695.8500633,-776
1756899695.852017,-814
1756899695.8540606,-813
1756899695.8560102,-771
1756899695.8578699,-740
1756899695.859991,-755
1756899695.8633087,-785
1756899695.86402,-777
1756899695.8699703,-721
1756899695.872022,-672
1756899695.8722272,-674
1756899695.8724272,-712
1756899695.8772275,-729
1756899695.886169,-701
1756899695.886589,-666
1756899695.8895302,-669
1756899695.8898194,-704
1756899695.8900497,-728
1756899695.890275,-718
1756899695.8904884,-701
1756899695.8906918,-701
1756899695.8914127,-711
1756899695.8934927,-701
1756899695.896733,-672
1756899695.897261,-658
1756899695.899229,-679
1756899695.901206,-710
1756899695.9085267,-713
1756899695.912153,-693
1756899695.9124026,-692
1756899695.9126048,-731
1756899695.9128036,-774
1756899695.913,-771
1756899695.9149482,-727
1756899695.917015,-696
1756899695.918852,-715
1756899695.920789,-758
1756899695.9228115,-776
1756899695.9246988,-758
1756899695.926706,-743
1756899695.9287908,-762
1756899695.9306872,-798
1756899695.932616,-809
1756899695.9386,-789
1756899695.9396996,-772
1756899695.9399786,-782
1756899695.9405727,-798
1756899695.9685676,-782
1756899695.9688747,-731
1756899695.9690886,-685
1756899695.9692879,-673
1756899695.9694843,-682
1756899695.9699354,-681
1756899695.9701579,-660
1756899695.9709105,-639
1756899695.9737566,-628
1756899695.9739692,-621
1756899695.9741707,-612
1756899695.9743693,-604
1756899695.974566,-605
1756899695.9747634,-602
1756899695.9752913,-582
1756899695.9758608,-556
1756899695.9760666,-546
1756899695.9762738,-558
1756899695.9783738,-568
1756899695.9817278,-555
1756899695.981956,-530
1756899695.9840434,-524
1756899695.9858413,-542
1756899695.9878092,-562
1756899695.9897978,-570
1756899695.9917507,-580
1756899695.9937942,-608
1756899695.9958508,-643
1756899695.9977374,-655
1756899695.99971,-641
1756899696.0019155,-632
1756899696.0055501,-650
1756899696.005905,-676
1756899696.0094316,-676
1756899696.0098243,-643
1756899696.0111225,-610
1756899696.0141509,-604
1756899696.0150795,-615
1756899696.017124,-614
1756899696.0190508,-600
1756899696.0210571,-599
1756899696.0231264,-632
1756899696.0249584,-676
1756899696.0269558,-697
1756899696.02891,-691
1756899696.0308645,-690
1756899696.0328343,-722
1756899696.034779,-767
1756899696.038477,-778
1756899696.0387506,-736
1756899696.0408099,-678
1756899696.0535822,-658
1756899696.0553808,-685
1756899696.0556846,-722
1756899696.0567048,-730
1756899696.0571117,-712
1756899696.057313,-700
1756899696.0575085,-716
1756899696.0578418,-745
1756899696.0583184,-763
1756899696.0604093,-758
1756899696.062372,-744
1756899696.064248,-733
1756899696.068538,-726
1756899696.0689707,-716
1756899696.0701773,-704
1756899696.072086,-696
1756899696.0741022,-693
1756899696.0760286,-697
1756899696.078683,-708
1756899696.0830193,-730
1756899696.1021535,-759
1756899696.1024737,-783
1756899696.102751,-787
1756899696.1031322,-773
1756899696.1071818,-756
1756899696.1079376,-750
1756899696.1082618,-751
1756899696.108466,-747
1756899696.1086726,-732
1756899696.124673,-714
1756899696.1253126,-700
1756899696.1260126,-686
1756899696.1270583,-663
1756899696.1278903,-637
1756899696.1283977,-626
1756899696.1286068,-637
1756899696.128817,-655
1756899696.1298485,-658
1756899696.130129,-645
1756899696.1303275,-635
1756899696.1305246,-650
1756899696.130731,-691
1756899696.1322057,-736
1756899696.1325724,-762
1756899696.1330073,-764
1756899696.1332188,-756
1756899696.133415,-756
1756899696.1349719,-773
1756899696.1371756,-800
1756899696.1388738,-821
1756899696.1408505,-821
1756899696.1428926,-804
1756899696.1451855,-785
1756899696.146848,-786
1756899696.1487958,-813
1756899696.1507764,-845
1756899696.153222,-852
1756899696.1550446,-823
1756899696.156675,-786
1756899696.1585677,-780
1756899696.1605422,-812
1756899696.1838255,-843
1756899696.1842496,-836
1756899696.1848567,-800
1756899696.1880474,-789
1756899696.189693,-836
1756899696.1899087,-910
1756899696.1901054,-952
1756899696.190302,-939
1756899696.1904974,-905
1756899696.1906922,-896
1756899696.190887,-916
1756899696.1910822,-933
1756899696.1912777,-930
1756899696.1914976,-926
1756899696.1916986,-945
1756899696.1920614,-983
1756899696.1940336,-1006
1756899696.196073,-999
1756899696.197927,-980
1756899696.1999545,-974
1756899696.2020426,-984
1756899696.2040727,-988
1756899696.2062128,-974
1756899696.2078946,-948
1756899696.2121596,-925
1756899696.2125683,-915
1756899696.213959,-918
1756899696.215852,-930
1756899696.2175295,-945
1756899696.2198496,-949
1756899696.2215486,-940
1756899696.2237449,-932
1756899696.2254052,-946
1756899696.227474,-984
1756899696.2293818,-1019
1756899696.2359166,-1023
1756899696.2361562,-998
1756899696.2363527,-980
1756899696.2372353,-994
1756899696.239215,-1028
1756899696.2412283,-1046
1756899696.246899,-1038
1756899696.2478569,-1028
1756899696.251456,-1048
1756899696.251714,-1086
1756899696.2519143,-1101
1756899696.2529628,-1070
1756899696.254986,-1028
1756899696.257014,-1032
1756899696.2596588,-1088
1756899696.2607713,-1142
1756899696.2628,-1141
1756899696.2647092,-1097
1756899696.2667372,-1072
1756899696.2687154,-1098
1756899696.2706914,-1137
1756899696.2726,-1133
1756899696.2746181,-1084
1756899696.278714,-1042
1756899696.2789998,-1048
1756899696.2805202,-1081
1756899696.2823658,-1093
1756899696.2860377,-1070
1756899696.2871897,-1051
1756899696.2883792,-1070
1756899696.290395,-1114
1756899696.292298,-1141
1756899696.2942684,-1132
1756899696.2961893,-1112
1756899696.2981503,-1116
1756899696.3001459,-1144
1756899696.302072,-1167
1756899696.3040156,-1165
1756899696.309618,-1146
1756899696.3098996,-1133
1756899696.3101413,-1139
1756899696.3119605,-1160
1756899696.3139913,-1183
1756899696.316019,-1202
1756899696.3181221,-1211
1756899696.320097,-1203
1756899696.3219311,-1182
1756899696.3238797,-1164
1756899696.3257709,-1163
1756899696.3278422,-1172
1756899696.3296313,-1172
1756899696.3320594,-1154
1756899696.333539,-1142
1756899696.335526,-1171
1756899696.3378403,-1244
1756899696.3396294,-1320
1756899696.3417363,-1354
1756899696.3433843,-1341
1756899696.350295,-1319
1756899696.3505273,-1326
1756899696.3507242,-1357
1756899696.351219,-1376
1756899696.3536663,-1365
1756899696.3551762,-1344
1756899696.3572204,-1348
1756899696.3645809,-1378
1756899696.3648326,-1403
1756899696.3650346,-1398
1756899696.3652315,-1373
1756899696.366919,-1369
1756899696.3688881,-1406
1756899696.3709486,-1461
1756899696.372858,-1497
1756899696.3748462,-1500
1756899696.3853714,-1487
1756899696.3856354,-1489
1756899696.3858402,-1509
1756899696.387976,-1527
1756899696.3882124,-1523
1756899696.3884194,-1498
1756899696.3886163,-1466
1756899696.3977225,-1431
1756899696.3981318,-1393
1756899696.39836,-1352
1756899696.3985589,-1320
1756899696.3987575,-1312
1756899696.4006886,-1327
1756899696.4026492,-1348
1756899696.4041839,-1358
1756899696.406331,-1353
1756899696.4081645,-1344
1756899696.4102876,-1347
1756899696.4121814,-1364
1756899696.4205143,-1382
1756899696.4207535,-1385
1756899696.4209518,-1370
1756899696.4211493,-1351
1756899696.42201,-1351
1756899696.4239912,-1377
1756899696.4259608,-1413
1756899696.4278572,-1436
1756899696.429931,-1434
1756899696.431763,-1414
1756899696.4339561,-1392
1756899696.4357915,-1373
1756899696.437759,-1353
1756899696.439777,-1329
1756899696.441645,-1308
1756899696.4440303,-1304
1756899696.4456768,-1322
1756899696.447897,-1349
1756899696.44953,-1363
1756899696.451644,-1356
1756899696.4691303,-1339
1756899696.4694805,-1327
1756899696.469722,-1320
1756899696.4699345,-1307
1756899696.4701445,-1279
1756899696.4703553,-1244
1756899696.4734893,-1220
1756899696.4741518,-1219
1756899696.4761443,-1241
1756899696.4763598,-1278
1756899696.476557,-1320
1756899696.4767535,-1353
1756899696.477076,-1361
1756899696.4789605,-1341
1756899696.4809394,-1308
1756899696.4829025,-1286
1756899696.490886,-1277
1756899696.4965987,-1264
1756899696.4978693,-1236
1756899696.499103,-1218
1756899696.4993124,-1259
1756899696.4995103,-1387
1756899696.4997067,-1575
1756899696.4999015,-1770
1756899696.5005121,-1950
1756899696.5025697,-2146
1756899696.5045192,-2403
1756899696.5065322,-2707
1756899696.5085697,-2983
1756899696.5103219,-3152
1756899696.512657,-3201
1756899696.5255134,-3184
1756899696.5259674,-3151
1756899696.5261602,-3098
1756899696.526209,-2984
1756899696.526252,-2792
1756899696.5328715,-2558
1756899696.5341177,-2339
1756899696.5343108,-2171
1756899696.5343606,-2054
1756899696.5344083,-1977
1756899696.5344546,-1931
1756899696.535773,-1909
1756899696.5377417,-1891
1756899696.5397925,-1855
1756899696.5416868,-1800
1756899696.543628,-1742
1756899696.545784,-1694
1756899696.5475965,-1654
1756899696.5496476,-1611
1756899696.5536556,-1558
1756899696.553744,-1497
1756899696.5556974,-1439
1756899696.5575514,-1396
1756899696.5606034,-1375
1756899696.5613136,-1378
1756899696.5634806,-1393
1756899696.5654278,-1398
1756899696.567425,-1370
1756899696.5693839,-1308
1756899696.5713625,-1244
1756899696.5732522,-1217
1756899696.5753033,-1242
1756899696.5771425,-1293
1756899696.579068,-1328
1756899696.5809937,-1332
1756899696.5843983,-1326
1756899696.587012,-1327
1756899696.5899386,-1323
1756899696.5900273,-1286
1756899696.5928092,-1211
1756899696.592871,-1134
1756899696.5947628,-1086
1756899696.5968242,-1061
1756899696.5987394,-1021
1756899696.6009407,-959
1756899696.6026769,-909
1756899696.604624,-912
1756899696.6071298,-961
1756899696.6085477,-1001
1756899696.6111846,-989
1756899696.612474,-935
1756899696.6144245,-883
1756899696.616559,-854
1756899696.6186523,-836
1756899696.6345286,-806
1756899696.635948,-763
1756899696.6361759,-731
1756899696.6362567,-727
1756899696.6363373,-754
1756899696.6367018,-794
1756899696.636782,-825
1756899696.6368575,-834
1756899696.6369526,-826
1756899696.6379526,-827
1756899696.6399224,-853
1756899696.6420202,-885
1756899696.6438897,-883
1756899696.6458657,-827
1756899696.6477938,-751
1756899696.6497443,-710
1756899696.657181,-723
1756899696.6577864,-753
1756899696.6692376,-748
1756899696.6694522,-703
1756899696.6695507,-658
1756899696.6706898,-646
1756899696.6707962,-658
1756899696.670891,-665
1756899696.6710615,-655
1756899696.6712198,-642
1756899696.6715608,-638
1756899696.6737359,-630
1756899696.6753325,-603
1756899696.6786218,-567
1756899696.6793652,-548
1756899696.6813943,-558
1756899696.6851928,-578
1756899696.6853971,-580
1756899696.690336,-557
1756899696.6905863,-535
1756899696.6910694,-533
1756899696.6931796,-549
1756899696.6951036,-558
1756899696.6970801,-544
1756899696.7000673,-513
1756899696.7027383,-488
1756899696.702919,-486
1756899696.7050736,-498
1756899696.7068462,-506
1756899696.7087705,-500
1756899696.7107418,-492
1756899696.7128675,-501
1756899696.7146702,-527
1756899696.716769,-548
1756899696.7210915,-539
1756899696.7212572,-497
1756899696.7471383,-446
1756899696.7472448,-412
1756899696.7488575,-407
1756899696.7489483,-414
1756899696.7490368,-412
1756899696.749083,-394
1756899696.7491248,-375
1756899696.7491663,-374
1756899696.7492068,-393
1756899696.7492483,-417
1756899696.7492907,-426
1756899696.7493312,-408
1756899696.7493732,-365
1756899696.7494159,-311
1756899696.7499893,-258
1756899696.7535763,-217
1756899696.7541175,-189
1756899696.7559187,-166
1756899696.7589612,-144
1756899696.766163,-126
1756899696.7662585,-119
1756899696.766312,-134
1756899696.7663643,-176
1756899696.76769,-239
1756899696.7696772,-306
1756899696.7716343,-354
1756899696.7736335,-364
1756899696.7757862,-342
1756899696.7778435,-304
1756899696.779789,-264
1756899696.7817106,-220
1756899696.7835803,-166
1756899696.7855372,-101
1756899696.7902508,-39
1756899696.7904236,8
1756899696.7914238,36
1756899696.793646,39
1756899696.795834,13
1756899696.7993305,-40
1756899696.7994847,-100
1756899696.8017323,-140
1756899696.8063464,-151
1756899696.8065133,-143
1756899696.8071706,-125
1756899696.809128,-93
1756899696.8109865,-42
1756899696.8129692,11
1756899696.8148868,49
1756899696.8170314,70
1756899696.8191829,97
1756899696.8221037,143
1756899696.8228557,189
1756899696.8248582,203
1756899696.8269482,184
1756899696.8288941,165
1756899696.830915,174
1756899696.8328023,208
1756899696.8345819,246
1756899696.8367233,274
1756899696.838652,298
1756899696.8406377,320
1756899696.8426423,334
1756899696.8444157,342
1756899696.8463936,359
1756899696.8485827,397
1756899696.8503022,444
1756899696.8524926,473
1756899696.854305,477
1756899696.8715792,477
1756899696.8720136,491
1756899696.874049,516
1756899696.8741374,534
1756899696.8741896,535
1756899696.874242,525
1756899696.8742933,510
1756899696.8743446,491
1756899696.8743966,469
1756899696.874449,453
1756899696.8758452,442
1756899696.8780851,425
1756899696.883293,393
1756899696.8890967,358
1756899696.8892045,343
1756899696.8892934,357
1756899696.8893814,377
1756899696.8936403,381
1756899696.893756,374
1756899696.8938332,379
1756899696.895997,409
1756899696.897484,451
1756899696.900187,484
1756899696.9014826,495
1756899696.903407,486
1756899696.9053984,459
1756899696.9080894,419
1756899696.9093006,380
1756899696.91121,358
1756899696.9132085,359
1756899696.9151313,368
1756899696.9170964,367
1756899696.91912,355
1756899696.921024,352
1756899696.9242022,368
1756899696.925888,398
1756899696.927058,425
1756899696.9290247,436
1756899696.931006,430
1756899696.93388,412
1756899696.940108,388
1756899696.941027,363
1756899696.9412444,342
1756899696.9413993,328
1756899696.9427946,319
1756899696.9459639,311
1756899696.946658,300
1756899696.9485877,294
1756899696.9504778,303
1756899696.9524844,326
1756899696.9544284,356
1756899696.9571662,383
1756899696.9583986,408
1756899696.9607477,442
1756899696.9627657,483
1756899696.9642956,512
1756899696.9664562,514
1756899696.9682522,491
1756899696.9702675,463
1756899696.9727669,442
1756899696.9741664,421
1756899696.9762669,383
1756899696.978092,335
1756899696.9801362,300
1756899696.9822679,296
1756899696.9845107,313
1756899696.9861422,331
1756899696.9881132,342
1756899696.9899197,357
1756899696.9943504,385
1756899696.9945664,415
1756899696.9965174,428
1756899696.9977238,417
1756899696.999756,383
1756899697.0017529,337
1756899697.0037682,290
1756899697.00561,252
1756899697.0075307,230
1756899697.0096316,221
1756899697.011588,214
1756899697.0145154,203
1756899697.015585,199
1756899697.0174718,212
1756899697.019458,240
1756899697.0239491,269
1756899697.0241675,287
1756899697.0252426,297
1756899697.0272465,295
1756899697.0296552,276
1756899697.0321212,239
1756899697.033073,205
1756899697.0351722,199
1756899697.0371435,224
1756899697.0390801,249
1756899697.0410693,249
1756899697.04291,233
1756899697.0448706,233
1756899697.0470495,267
1756899697.0505545,314
1756899697.0508316,337
1756899697.053396,326
1756899697.054962,305
1756899697.0568247,300
1756899697.0592592,308
1756899697.063408,307
1756899697.0636086,285
1756899697.064586,262
1756899697.0665805,265
1756899697.0688596,298
1756899697.0708265,333
1756899697.0724359,344
1756899697.074389,332
1756899697.0763643,320
1756899697.0783074,329
1756899697.0803938,348
1756899697.0824835,356
1756899697.0842974,351
1756899697.0861654,350
1756899697.0890377,366
1756899697.0901651,391
1756899697.0946002,404
1756899697.094928,399
1756899697.0960042,393
1756899697.0980425,401
1756899697.0999177,419
1756899697.1019511,418
1756899697.1038547,386
1756899697.1058364,339
1756899697.1079595,310
1756899697.1103947,311
1756899697.1119094,324
1756899697.113978,320
1756899697.11574,299
1756899697.1178734,290
1756899697.1197221,320
1756899697.1218514,377
1756899697.123718,418
1756899697.1258216,417
1756899697.1286952,392
1756899697.129718,388
1756899697.13176,422
1756899697.1337073,467
1756899697.1357708,480
1756899697.1374576,453
1756899697.1397028,424
1756899697.1413774,433
1756899697.1435971,480
1756899697.1498005,528
1756899697.150415,549
1756899697.1507869,545
1756899697.1511083,541
1756899697.1539178,547
1756899697.1550934,549
1756899697.1572928,527
1756899697.1618245,482
1756899697.1621025,439
1756899697.1629758,417
1756899697.1650777,405
1756899697.1669612,380
1756899697.1689863,330
1756899697.1710145,277
1756899697.1728833,253
1756899697.1748908,268
1756899697.1769762,294
1756899697.1787806,294
1756899697.1808128,262
1756899697.1826985,225
1756899697.1846223,212
1756899697.1866167,223
1756899697.188527,225
1756899697.19056,197
1756899697.1925178,148
1756899697.1967452,109
1756899697.2003849,101
1756899697.2006943,118
1756899697.2009783,135
1756899697.202358,141
1756899697.2042632,144
1756899697.2062693,157
1756899697.2082293,186
1756899697.2102413,219
1756899697.2138438,243
1756899697.2141728,249
1756899697.21598,247
1756899697.2209885,250
1756899697.2214186,258
1756899697.2218819,262
1756899697.2238615,258
1756899697.2260332,248
1756899697.2299685,245
1756899697.2302477,252
1756899697.2524378,264
1756899697.2527108,273
1756899697.252914,281
1756899697.2541602,292
1756899697.2585893,303
1756899697.2600358,307
1756899697.2629652,306
1756899697.2636619,301
1756899697.263931,290
1756899697.2642038,262
1756899697.2694516,218
1756899697.2700834,177
1756899697.2703607,161
1756899697.2705717,168
1756899697.270768,171
1756899697.2710006,149
1756899697.2711983,108
1756899697.2716722,71
1756899697.2718768,54
1756899697.272073,56
1756899697.2722778,62
1756899697.2731519,67
1756899697.2751706,62
1756899697.2769825,43
1756899697.2800643,7
1756899697.2809427,-29
1756899697.2832105,-46
1756899697.2930536,-33
1756899697.2933493,-5
1756899697.2937574,12
1756899697.2939668,5
1756899697.294295,-9
1756899697.2995007,-1
1756899697.2998822,49
1756899697.302285,121
1756899697.3034682,173
1756899697.303678,170
1756899697.3044899,110
1756899697.3070765,25
1756899697.3084583,-62
1756899697.3104963,-159
1756899697.3123975,-291
1756899697.3143563,-475
1756899697.3162966,-702
1756899697.3182714,-950
1756899697.3202665,-1206
1756899697.322178,-1463
1756899697.3241813,-1700
1756899697.32619,-1881
1756899697.3281224,-1978
1756899697.3304262,-1995
1756899697.3320575,-1961
1756899697.3339334,-1897
1756899697.3359733,-1794
1756899697.3378983,-1628
1756899697.3399122,-1400
1756899697.3419724,-1148
1756899697.3439152,-929
1756899697.3459833,-771
1756899697.3478212,-666
1756899697.349891,-592
1756899697.3584664,-541
1756899697.3608031,-522
1756899697.361462,-535
1756899697.3617146,-556
1756899697.3619356,-557
1756899697.3621557,-534
1756899697.363414,-508
1756899697.3656125,-499
1756899697.367438,-498
1756899697.3697917,-474
1756899697.390134,-408
1756899697.3903804,-324
1756899697.3905795,-267
1756899697.3907747,-263
1756899697.3909717,-288
1756899697.391598,-293
1756899697.3918762,-247
1756899697.3921478,-170
1756899697.39312,-103
1756899697.3933222,-66
1756899697.3937697,-47
1756899697.3942533,-27
1756899697.3948698,-4
1756899697.3969574,8
1756899697.3989697,6
1756899697.4008203,4
1756899697.4028037,11
1756899697.4046478,20
1756899697.4067,15
1756899697.408836,1
1756899697.410571,-5
1756899697.412543,7
1756899697.4146159,20
1756899697.4165316,12
1756899697.4185789,-17
1756899697.420451,-51
1756899697.4223673,-70
1756899697.42575,-74
1756899697.426634,-71
1756899697.4284072,-62
1756899697.4303524,-41
1756899697.4323182,-6
1756899697.4342532,32
1756899697.4364686,63
1756899697.4382684,82
1756899697.4404488,93
1756899697.442021,96
1756899697.4440222,85
1756899697.4460003,59
1756899697.447929,24
1756899697.4506004,-11
1756899697.4519258,-47
1756899697.4540975,-91
1756899697.4558609,-134
1756899697.4579387,-157
1756899697.4598947,-145
1756899697.4619105,-115
1756899697.4637845,-107
1756899697.4663267,-139
1756899697.4677374,-187
1756899697.469817,-209
1756899697.4717808,-200
1756899697.473453,-196
1756899697.4758344,-232
1756899697.4777005,-293
1756899697.479688,-334
1756899697.4814079,-331
1756899697.483648,-300
1756899697.485672,-278
1756899697.48765,-280
1756899697.4894176,-299
1756899697.4915233,-327
1756899697.494215,-362
1756899697.495557,-395
1756899697.499238,-407
1756899697.5028052,-395
1756899697.5031137,-381
1756899697.5036962,-394
1756899697.5059106,-430
1756899697.5070493,-454
1756899697.509106,-444
1756899697.5109735,-419
1756899697.5129535,-413
1756899697.5164907,-436
1756899697.5173914,-462
1756899697.525037,-463
1756899697.5251431,-446
1756899697.5251882,-438
1756899697.525231,-452
1756899697.5265212,-466
1756899697.528527,-456
1756899697.5305192,-428
1756899697.532583,-413
1756899697.5352526,-428
1756899697.5383065,-456
1756899697.5383782,-468
1756899697.540348,-459
1756899697.5423846,-452
1756899697.5446303,-471
1756899697.5463367,-503
1756899697.548463,-513
1756899697.5503056,-493
1756899697.5522435,-473
1756899697.5543592,-481
1756899697.5563006,-506
1756899697.5582497,-506
1756899697.5651934,-469
1756899697.5654235,-435
1756899697.5656214,-450
1756899697.5659657,-513
1756899697.569027,-570
1756899697.5699754,-574
1756899697.5719352,-534
1756899697.5842934,-493
1756899697.584597,-484
1756899697.5847948,-500
1756899697.5850198,-514
1756899697.5852146,-512
1756899697.589809,-499
1756899697.590037,-484
1756899697.5902357,-475
1756899697.5904326,-479
1756899697.5914075,-495
1756899697.5934274,-516
1756899697.5953863,-527
1756899697.600219,-525
1756899697.6013443,-516
1756899697.601577,-510
1756899697.6039999,-508
1756899697.605162,-504
1756899697.6071339,-500
1756899697.6092544,-498
1756899697.6111631,-495
1756899697.613242,-484
1756899697.61518,-463
1756899697.6172032,-442
1756899697.6190252,-433
1756899697.621052,-444
1756899697.6231885,-467
1756899697.6267827,-487
1756899697.6270378,-498
1756899697.6289504,-502
1756899697.6309285,-506
1756899697.632939,-513
1756899697.6348612,-526
1756899697.637311,-546
1756899697.6424613,-566
1756899697.6426954,-570
1756899697.6428936,-546
1756899697.644978,-501
1756899697.646529,-457
1756899697.648478,-432
1756899697.6504943,-421
1756899697.652421,-405
1756899697.6544082,-376
1756899697.6563213,-354
1756899697.6591828,-361
1756899697.665791,-391
1756899697.6660485,-408
1756899697.6699705,-390
1756899697.6701994,-355
1756899697.670398,-339
1756899697.6705945,-351
1756899697.6720002,-358
1756899697.6767979,-325
1756899697.6771014,-255
1756899697.6778643,-188
1756899697.6798506,-164
1756899697.6819031,-180
1756899697.686614,-203
1756899697.6868243,-207
1756899697.6877105,-199
1756899697.6898112,-208
1756899697.6917205,-240
1756899697.693701,-274
1756899697.6957154,-279
1756899697.6976118,-251
1756899697.699744,-216
1756899697.701587,-201
1756899697.7035751,-207
1756899697.7056963,-215
1756899697.7131598,-218
1756899697.7138412,-227
1756899697.7140503,-249
1756899697.7142498,-276
1756899697.7153375,-297
1756899697.7172208,-312
1756899697.7200549,-333
1756899697.7212045,-350
1756899697.7244322,-344
1756899697.725704,-310
1756899697.727174,-275
1756899697.7322085,-268
1756899697.732439,-290
1756899697.7329795,-312
1756899697.73496,-319
1756899697.7369604,-318
1756899697.7394512,-325
1756899697.7423978,-337
1756899697.7427294,-344
1756899697.744706,-351
1756899697.7466476,-373
1756899697.7487426,-408
1756899697.750609,-430
1756899697.7526886,-420
1756899697.7546248,-392
1756899697.7566226,-383
1756899697.7622411,-410
1756899697.7624612,-455
1756899697.762659,-486
1756899697.7644463,-489
1756899697.7664332,-475
1756899697.7684956,-465
1756899697.7705102,-467
1756899697.772325,-476
1756899697.77551,-481
1756899697.7762148,-483
1756899697.7783835,-486
1756899697.7829778,-498
1756899697.7832794,-514
1756899697.7840958,-526
1756899697.788733,-531
1756899697.7891824,-533
1756899697.790025,-540
1756899697.7920737,-545
1756899697.7939246,-536
1756899697.7959836,-516
1756899697.809569,-502
1756899697.8098018,-507
1756899697.8100002,-524
1756899697.810198,-533
1756899697.8103948,-528
1756899697.8105898,-529
1756899697.8107862,-551
1756899697.8116868,-586
1756899697.817661,-606
1756899697.817777,-599
1756899697.8178613,-579
1756899697.8194835,-570
1756899697.8212507,-579
1756899697.8232648,-593
1756899697.8264618,-598
1756899697.8271973,-595
1756899697.8301063,-597
1756899697.8311255,-613
1756899697.8330784,-639
1756899697.8350286,-662
1756899697.8370018,-664
1756899697.839338,-636
1756899697.8524954,-587
1756899697.8532007,-540
1756899697.8533947,-510
1756899697.8538282,-493
1756899697.855192,-472
1756899697.8555405,-443
1756899697.8555996,-427
1756899697.855654,-445
1756899697.8576546,-495
1756899697.8585753,-543
1756899697.860531,-560
1756899697.862761,-545
1756899697.8645806,-523
1756899697.8666897,-523
1756899697.8687537,-543
1756899697.8707914,-556
1756899697.873506,-541
1756899697.8743665,-509
1756899697.8763552,-494
1756899697.8783562,-522
1756899697.8817995,-576
1756899697.8823533,-606
1756899697.8847091,-574
1756899697.8898158,-498
1756899697.8952785,-432
1756899697.8954406,-407
1756899697.895562,-405
1756899697.8956785,-378
1756899697.8999104,-313
1756899697.8999965,-244
1756899697.9000723,-226
1756899697.9018958,-273
1756899697.9041402,-347
1756899697.9057336,-394
1756899697.9077406,-391
1756899697.9096694,-366
1756899697.9117012,-357
1756899697.9136562,-375
1756899697.915612,-398
1756899697.917664,-392
1756899697.9210403,-353
1756899697.9214985,-306
1756899697.9235303,-278
1756899697.9254818,-275
1756899697.9281824,-284
1756899697.9294531,-284
1756899697.9314444,-273
1756899697.9344568,-258
1756899697.935559,-250
1756899697.9386888,-260
1756899697.9392707,-285
1756899697.9412448,-312
1756899697.9432123,-329
1756899697.9451294,-330
1756899697.9475918,-327
1756899697.9495316,-327
1756899697.9512992,-325
1756899697.953054,-307
1756899697.9549615,-277
1756899697.9569044,-250
1756899697.9589953,-241
1756899697.9608915,-241
1756899697.962818,-236
1756899697.9647486,-228
1756899697.9667299,-242
1756899697.9686306,-291
1756899697.9706264,-358
1756899697.9735703,-405
1756899697.9745402,-416
1756899697.9767063,-411
1756899697.978712,-419
1756899697.9855027,-433
1756899697.9857492,-425
1756899697.985946,-388
1756899697.9868565,-349
1756899697.9911683,-341
1756899697.9914029,-358
1756899697.9924128,-365
1756899697.9943779,-339
1756899697.996281,-306
1756899697.9983358,-308
1756899698.0002751,-347
1756899698.0022397,-377
1756899698.0043092,-360
1756899698.0061634,-311
1756899698.0100925,-285
1756899698.0109916,-305
1756899698.0120623,-344
1756899698.0140278,-362
1756899698.0160637,-351
1756899698.0209215,-340
1756899698.0211375,-342
1756899698.0218978,-341
1756899698.0249012,-318
1756899698.0260022,-278
1756899698.0278134,-247
1756899698.0324192,-236
1756899698.033498,-224
1756899698.033703,-192
1756899698.03559,-145
1756899698.037563,-105
1756899698.0401266,-93
1756899698.042355,-103
1756899698.0435398,-114
1756899698.0455036,-111
1756899698.0474613,-93
1756899698.0493705,-68
1756899698.0513473,-44
1756899698.0609586,-18
1756899698.0612283,16
1756899698.0614245,60
1756899698.0616536,110
1756899698.0618513,151
1756899698.063173,173
1756899698.0650747,177
1756899698.0671394,173
1756899698.0690677,164
1756899698.0710204,147
1756899698.0732052,124
1756899698.0751538,106
1756899698.0771708,110
1756899698.0793097,139
1756899698.0810595,176
1756899698.0828497,204
1756899698.091391,223
1756899698.0917284,252
1756899698.0919642,301
1756899698.0921614,357
1756899698.0926418,395
1756899698.096017,393
1756899698.0965075,358
1756899698.0985308,311
1756899698.1004798,278
1756899698.102477,268
1756899698.1044497,273
1756899698.1064434,272
1756899698.1104157,254
1756899698.1106586,227
1756899698.1122801,221
1756899698.1142433,255
1756899698.1163144,314
1756899698.1181977,353
1756899698.1319125,338
1756899698.1324189,273
1756899698.1326215,192
1756899698.1328182,115
1756899698.133015,28
1756899698.133211,-104
1756899698.1334083,-300
1756899698.1359732,-549
1756899698.136189,-820
1756899698.1380181,-1084
1756899698.1398613,-1311
1756899698.1419976,-1471
1756899698.145595,-1548
1756899698.1460047,-1552
1756899698.147729,-1505
1756899698.1496856,-1420
1756899698.1517217,-1285
1756899698.153648,-1096
1756899698.1556282,-873
1756899698.1599197,-654
1756899698.1601617,-472
1756899698.1621504,-338
1756899698.1633618,-259
1756899698.1654634,-235
1756899698.1673486,-248
1756899698.1693406,-264
1756899698.1712706,-255
1756899698.1732202,-230
1756899698.1780741,-213
1756899698.1783757,-207
1756899698.1860788,-182
1756899698.1865141,-117
1756899698.1867218,-32
1756899698.186919,39
1756899698.187314,94
1756899698.1890874,155
1756899698.1908455,220
1756899698.200537,243
1756899698.2007859,196
1756899698.200982,123
1756899698.2011783,104
1756899698.201374,164
1756899698.2028239,238
1756899698.2046525,252
1756899698.2065668,212
1756899698.208606,189
1756899698.2132838,223
1756899698.2138016,280
1756899698.2166996,300
1756899698.2169662,278
1756899698.2183971,257
1756899698.2203176,264
1756899698.2223644,278
1756899698.2242932,274
1756899698.2262173,254
1756899698.228307,247
1756899698.2304688,263
1756899698.2322228,283
1756899698.2341805,290
1756899698.2375138,289
1756899698.239172,295
1756899698.2403288,304
1756899698.2419782,306
1756899698.2466404,303
1756899698.2468874,301
1756899698.2479756,301
1756899698.2499547,290
1756899698.2519038,264
1756899698.2539327,243
1756899698.255914,245
1756899698.2578356,262
1756899698.266851,260
1756899698.2685094,214
1756899698.2687337,136
1756899698.2689314,61
1756899698.2703993,15
1756899698.2707427,-7
1756899698.2714128,-30
1756899698.2745688,-68
1756899698.275805,-118
1756899698.2773817,-165
1756899698.2793536,-194
1756899698.28142,-201
1756899698.2833111,-197
1756899698.2852657,-201
1756899698.2872367,-233
1756899698.2890992,-287
1756899698.2923481,-339
1756899698.2931108,-368
1756899698.295016,-379
1756899698.2970328,-390
1756899698.298992,-414
1756899698.3009658,-441
1756899698.3029952,-460
1756899698.3057985,-476
1756899698.3068066,-504
1756899698.3093855,-553
1756899698.3108654,-601
1756899698.3130677,-623
1756899698.3146677,-613
1756899698.316813,-589
1756899698.3186686,-568
1756899698.3205802,-550
1756899698.3225322,-530
1756899698.3244889,-515
1756899698.3264573,-519
1756899698.3285067,-544
1756899698.3304617,-579
1756899698.3430529,-619
1756899698.3433375,-668
1756899698.3435485,-730
1756899698.3438022,-797
1756899698.3441694,-849
1756899698.3443751,-876
1756899698.3478901,-874
1756899698.3487394,-840
1756899698.3491213,-773
1756899698.3503404,-695
1756899698.352089,-644
1756899698.3540268,-643
1756899698.3559976,-668
1756899698.3578947,-671
1756899698.359932,-643
1756899698.3624294,-628
1756899698.364423,-669
1756899698.3657634,-744
1756899698.3682375,-786
1756899698.3697948,-765
1756899698.371813,-724
1756899698.3737078,-719
1756899698.3756642,-746
1756899698.3775704,-752
1756899698.3824506,-715
1756899698.3826883,-679
1756899698.3836544,-699
1756899698.3854947,-764
1756899698.3881147,-809
1756899698.3897846,-796
1756899698.3913794,-757
1756899698.3935757,-739
1756899698.3952813,-748
1756899698.3972533,-753
1756899698.3991618,-741
1756899698.410901,-738
1756899698.4111507,-754
1756899698.4115903,-763
1756899698.4117894,-732
1756899698.411986,-673
1756899698.4121811,-638
1756899698.4129755,-654
1756899698.4180458,-687
1756899698.4183047,-679
1756899698.418874,-617
1756899698.420861,-543
1756899698.4228146,-510
1756899698.4247649,-528
1756899698.4268482,-567
1756899698.4289033,-586
1756899698.431096,-563
1756899698.4339516,-508
1756899698.4346511,-458
1756899698.4366786,-444
1756899698.4391172,-467
1756899698.4406106,-493
1756899698.4436388,-479
1756899698.4445322,-418
1756899698.4465787,-348
1756899698.449283,-310
1756899698.4506047,-312
1756899698.4531803,-326
1756899698.4544075,-324
1756899698.4563603,-307
1756899698.4591675,-289
1756899698.460363,-280
1756899698.4621594,-278
1756899698.4641948,-280
1756899698.466144,-290
1756899698.4681125,-311
1756899698.4700265,-333
1756899698.4778042,-345
1756899698.4781275,-344
1756899698.4800124,-340
1756899698.4802334,-339
1756899698.4804318,-334
1756899698.482014,-315
1756899698.4839675,-282
1756899698.4859672,-235
1756899698.4898016,-176
1756899698.490042,-112
1756899698.4918714,-62
1756899698.493632,-48
1756899698.4958413,-72
1756899698.4975162,-105
1756899698.499521,-115
1756899698.5018244,-106
1756899698.5037093,-113
1756899698.505464,-154
1756899698.5073514,-202
1756899698.5093257,-210
1756899698.511297,-168
1756899698.51331,-118
1756899698.5152323,-107
1756899698.5174892,-127
1756899698.5190563,-134
1756899698.5211742,-105
1756899698.5230558,-68
1756899698.525059,-66
1756899698.527008,-107
1756899698.5289466,-152
1756899698.530836,-171
1756899698.5328703,-169
1756899698.5348809,-168
1756899698.53718,-167
1756899698.5387523,-143
1756899698.5462742,-89
1756899698.5465763,-34
1756899698.5485961,-13
1756899698.5488255,-25
1756899698.5490222,-40
1756899698.550606,-31
1756899698.5526984,-14
1756899698.555421,-20
1756899698.556487,-58
1756899698.5585063,-105
1756899698.5606494,-128
1756899698.5625064,-123
1756899698.564869,-115
1756899698.5663102,-125
1756899698.5684893,-144
1756899698.576143,-149
1756899698.5763729,-134
1756899698.5765755,-121
1756899698.5767744,-135
1756899698.5780063,-173
1756899698.5800655,-205
1756899698.5820303,-210
1756899698.583925,-198
1756899698.585879,-194
1756899698.588815,-205
1756899698.5898755,-214
1756899698.591778,-200
1756899698.5938134,-170
1756899698.5957088,-147
1756899698.597826,-142
1756899698.599755,-147
1756899698.6049256,-145
1756899698.6051452,-137
1756899698.605716,-132
1756899698.6076694,-137
1756899698.6096199,-151
1756899698.6201394,-169
1756899698.6204734,-188
1756899698.6241875,-200
1756899698.6245828,-193
1756899698.6250694,-167
1756899698.6253529,-140
1756899698.6256008,-135
1756899698.6260464,-152
1756899698.627513,-165
1756899698.629234,-156
1756899698.6311674,-128
1756899698.6331196,-106
1756899698.635072,-105
1756899698.637029,-121
1756899698.639217,-144
1756899698.6412122,-167
1756899698.6430547,-180
1756899698.6465077,-178
1756899698.6470168,-161
1756899698.6506634,-146
1756899698.6510515,-153
1756899698.6530223,-176
1756899698.6593904,-182
1756899698.6596887,-150
1756899698.660015,-99
1756899698.660671,-72
1756899698.662878,-90
1756899698.6645336,-124
1756899698.6664717,-131
1756899698.6684315,-104
1756899698.670418,-85
1756899698.675974,-114
1756899698.6765354,-178
1756899698.6767468,-221
1756899698.678252,-202
1756899698.6903496,-143
1756899698.6907425,-99
1756899698.6910658,-99
1756899698.6913807,-124
1756899698.694048,-130
1756899698.6954474,-96
1756899698.695676,-37
1756899698.6958919,13
1756899698.696093,30
1756899698.6978905,12
1756899698.6999547,-22
1756899698.7018752,-46
1756899698.7039077,-43
1756899698.7060046,-22
1756899698.7110815,-9
1756899698.7112963,-27
1756899698.711671,-73
1756899698.7136238,-118
1756899698.7156663,-134
1756899698.7175565,-115
1756899698.719623,-85
1756899698.721803,-66
1756899698.7235324,-62
1756899698.7254872,-57
1756899698.7274535,-37
1756899698.7294266,-4
1756899698.7313275,24
1756899698.7333424,31
1756899698.735311,21
1756899698.7372606,14
1756899698.7391982,21
1756899698.7412481,30
1756899698.7431927,19
1756899698.7453518,-12
1756899698.7494578,-42
1756899698.7496974,-51
1756899698.7627106,-43
1756899698.7650294,-42
1756899698.765267,-62
1756899698.765469,-94
1756899698.7656665,-111
1756899698.7658641,-106
1756899698.7660599,-92
1756899698.7662554,-87
1756899698.7667441,-94
1756899698.7687418,-98
1756899698.770897,-91
1756899698.7726467,-81
1756899698.7745726,-85
1756899698.7777169,-107
1756899698.7800686,-134
1756899698.7804468,-148
1756899698.7844079,-147
1756899698.7846262,-146
1756899698.7863429,-158
1756899698.7883444,-185
1756899698.7903173,-220
1756899698.7924922,-249
1756899698.794208,-255
1756899698.7963934,-231
1756899698.7985785,-194
1756899698.8001206,-181
1756899698.8021634,-217
1756899698.804104,-282
1756899698.80623,-328
1756899698.8120196,-329
1756899698.8122287,-309
1756899698.8124285,-319
1756899698.813954,-372
1756899698.8160193,-437
1756899698.8179345,-477
1756899698.8342452,-491
1756899698.8345332,-499
1756899698.8347375,-509
1756899698.8349864,-509
1756899698.8352804,-496
1756899698.8356986,-493
1756899698.8358965,-513
1756899698.836314,-539
1756899698.8365748,-537
1756899698.8375297,-502
1756899698.839719,-472
1756899698.8415425,-482
1756899698.8435647,-524
1756899698.8454382,-559
1756899698.8474355,-559
1756899698.849564,-534
1756899698.8528073,-513
1756899698.8531659,-500
1756899698.8570995,-474
1756899698.8573074,-426
1756899698.8590677,-375
1756899698.8610158,-352
1756899698.8631687,-349
1756899698.8656344,-331
1756899698.8669112,-279
1756899698.8690796,-229
1756899698.8708663,-235
1756899698.8733642,-309
1756899698.8748426,-402
1756899698.87863,-456
1756899698.8788433,-466
1756899698.8806994,-479
1756899698.8826277,-529
1756899698.8846552,-598
1756899698.886557,-642
1756899698.8888133,-648
1756899698.8904884,-650
1756899698.905358,-682
1756899698.9059987,-736
1756899698.9063463,-776
1756899698.9065578,-784
1756899698.9068024,-789
1756899698.9076095,-830
1756899698.9078755,-908
1756899698.9080799,-984
1756899698.908306,-1024
1756899698.9111507,-1029
1756899698.9121108,-1030
1756899698.9141805,-1048
1756899698.9160447,-1076
1756899698.918028,-1098
1756899698.9200475,-1111
1756899698.9220166,-1122
1756899698.9239092,-1127
1756899698.9259882,-1111
1756899698.9278324,-1080
1756899698.9298716,-1065
1756899698.932254,-1082
1756899698.9337208,-1105
1756899698.9357016,-1086
