1756899689.1937253,0,-1121.0
1756899689.195658,0,-1119.0
1756899689.1977468,0,-1104.0
1756899689.1998596,0,-1076.0
1756899689.201764,0,-1045.0
1756899689.2037137,0,-1026.0
1756899689.206175,0,-1024.0
1756899689.208393,0,-1025.0
1756899689.2103956,0,-1011.0
1756899689.212091,0,-998.0
1756899689.213555,0,-1019.0
1756899689.215515,0,-1091.0
1756899689.2175326,0,-1184.0
1756899689.2194872,0,-1248.0
1756899689.2214222,0,-1267.0
1756899689.2234097,0,-1274.0
1756899689.2253814,0,-1308.0
1756899689.2273417,0,-1368.0
1756899689.2292771,0,-1415.0
1756899689.2312605,0,-1419.0
1756899689.2331998,0,-1396.0
1756899689.2351336,0,-1386.0
1756899689.23718,0,-1407.0
1756899689.239095,0,-1444.0
1756899689.2410944,0,-1477.0
1756899689.2431,0,-1504.0
1756899689.2449887,0,-1543.0
1756899689.2470012,0,-1598.0
1756899689.2489295,0,-1656.0
1756899689.2508848,0,-1701.0
1756899689.2530496,0,-1730.0
1756899689.2548926,0,-1751.0
1756899689.256775,0,-1776.0
1756899689.258782,0,-1803.0
1756899689.2607512,0,-1822.0
1756899689.2628796,0,-1831.0
1756899689.264689,0,-1834.0
1756899689.266648,0,-1837.0
1756899689.2685957,0,-1841.0
1756899689.2705784,0,-1849.0
1756899689.2725108,0,-1870.0
1756899689.2744744,0,-1915.0
1756899689.2764676,0,-1968.0
1756899689.2784045,0,-1999.0
1756899689.2803798,0,-1984.0
1756899689.2823272,0,-1940.0
1756899689.284307,0,-1912.0
1756899689.286243,0,-1927.0
1756899689.2882342,0,-1964.0
1756899689.2901783,0,-1976.0
1756899689.2922049,0,-1946.0
1756899689.2941341,0,-1904.0
1756899689.2961378,0,-1889.0
1756899689.2980006,0,-1903.0
1756899689.300027,0,-1913.0
1756899689.3020358,0,-1896.0
1756899689.303892,0,-1862.0
1756899689.306491,0,-1844.0
1756899689.3084843,0,-1850.0
1756899689.310322,0,-1856.0
1756899689.3122993,0,-1839.0
1756899689.3148654,0,-1814.0
1756899689.3159943,0,-1806.0
1756899689.3177452,0,-1821.0
1756899689.319701,0,-1827.0
1756899689.3216302,0,-1800.0
1756899689.3236282,0,-1749.0
1756899689.3255973,0,-1712.0
1756899689.3275185,0,-1705.0
1756899689.3295677,0,-1699.0
1756899689.3314624,0,-1666.0
1756899689.3334126,0,-1620.0
1756899689.3354502,0,-1599.0
1756899689.3373547,0,-1622.0
1756899689.3393097,0,-1660.0
1756899689.3413277,0,-1675.0
1756899689.3432822,0,-1663.0
1756899689.345524,0,-1651.0
1756899689.3471751,0,-1657.0
1756899689.3491795,0,-1663.0
1756899689.351101,0,-1647.0
1756899689.3531048,0,-1615.0
1756899689.3550444,0,-1591.0
1756899689.3569949,0,-1588.0
1756899689.3590002,0,-1592.0
1756899689.3609383,0,-1584.0
1756899689.3628795,0,-1572.0
1756899689.3649235,0,-1577.0
1756899689.3668606,0,-1602.0
1756899689.368794,0,-1623.0
1756899689.3707876,0,-1619.0
1756899689.3727593,0,-1594.0
1756899689.3746789,0,-1574.0
1756899689.3767035,0,-1574.0
1756899689.3786507,0,-1588.0
1756899689.3805752,0,-1600.0
1756899689.3825765,0,-1607.0
1756899689.384561,0,-1621.0
1756899689.3864794,0,-1651.0
1756899689.3884768,0,-1690.0
1756899689.3904374,0,-1717.0
1756899689.392816,0,-1714.0
1756899689.394333,0,-1686.0
1756899689.3963568,0,-1646.0
1756899689.3982513,0,-1609.0
1756899689.4002604,0,-1581.0
1756899689.402233,0,-1558.0
1756899689.4041755,0,-1537.0
1756899689.406171,0,-1518.0
1756899689.4083693,0,-1510.0
1756899689.409985,0,-1519.0
1756899689.4120512,0,-1539.0
1756899689.4140253,0,-1561.0
1756899689.415951,0,-1578.0
1756899689.4179804,0,-1585.0
1756899689.4198754,0,-1577.0
1756899689.4218204,0,-1549.0
1756899689.4238052,0,-1506.0
1756899689.4257793,0,-1470.0
1756899689.4277217,0,-1461.0
1756899689.4298167,0,-1478.0
1756899689.431669,0,-1496.0
1756899689.4336195,0,-1496.0
1756899689.435586,0,-1485.0
1756899689.4375596,0,-1491.0
1756899689.439517,0,-1524.0
1756899689.4415097,0,-1563.0
1756899689.4434538,0,-1583.0
1756899689.4454033,0,-1581.0
1756899689.4474103,0,-1573.0
1756899689.4493372,0,-1568.0
1756899689.4512603,0,-1557.0
1756899689.4533093,0,-1536.0
1756899689.4551895,0,-1524.0
1756899689.4571486,0,-1535.0
1756899689.4599867,0,-1559.0
1756899689.4610472,0,-1568.0
1756899689.463097,0,-1554.0
1756899689.4650676,0,-1548.0
1756899689.4669938,0,-1585.0
1756899689.4689467,0,-1654.0
1756899689.4710646,0,-1706.0
1756899689.4729345,0,-1708.0
1756899689.4748764,0,-1681.0
1756899689.4768734,0,-1675.0
1756899689.4788353,0,-1707.0
1756899689.4807954,0,-1744.0
1756899689.4827228,0,-1746.0
1756899689.4847286,0,-1714.0
1756899689.486645,0,-1690.0
1756899689.4886029,0,-1703.0
1756899689.4905741,0,-1743.0
1756899689.4925368,0,-1780.0
1756899689.4945543,0,-1803.0
1756899689.4965143,0,-1829.0
1756899689.498424,0,-1873.0
1756899689.5004668,0,-1925.0
1756899689.5024104,0,-1957.0
1756899689.5043437,0,-1959.0
1756899689.506334,0,-1949.0
1756899689.5083396,0,-1947.0
1756899689.5102606,0,-1955.0
1756899689.5122302,0,-1965.0
1756899689.5142157,0,-1976.0
1756899689.5161211,0,-1998.0
1756899689.518159,0,-2035.0
1756899689.5200984,0,-2075.0
1756899689.5220196,0,-2106.0
1756899689.5240178,0,-2135.0
1756899689.5259938,0,-2181.0
1756899689.527928,0,-2238.0
1756899689.5298817,0,-2275.0
1756899689.5318863,0,-2264.0
1756899689.5338106,0,-2218.0
1756899689.5358145,0,-2185.0
1756899689.5377522,0,-2200.0
1756899689.5396726,0,-2254.0
1756899689.541959,0,-2304.0
1756899689.543747,0,-2324.0
1756899689.5456495,0,-2325.0
1756899689.547669,0,-2338.0
1756899689.5495837,0,-2381.0
1756899689.5515938,0,-2445.0
1756899689.5535457,0,-2513.0
1756899689.5555172,0,-2568.0
1756899689.5574598,0,-2602.0
1756899689.5594003,0,-2610.0
1756899689.5613217,0,-2598.0
1756899689.5633209,0,-2583.0
1756899689.5653398,0,-2584.0
1756899689.5672772,0,-2608.0
1756899689.5692425,0,-2637.0
1756899689.571204,0,-2638.0
1756899689.5732183,0,-2599.0
1756899689.5750792,0,-2547.0
1756899689.5771272,0,-2523.0
1756899689.5790572,0,-2542.0
1756899689.5810647,0,-2575.0
1756899689.5830255,0,-2580.0
1756899689.5850022,0,-2545.0
1756899689.5869172,0,-2506.0
1756899689.5889187,0,-2507.0
1756899689.5908659,0,-2551.0
1756899689.592769,0,-2605.0
1756899689.5951025,0,-2641.0
1756899689.5967395,0,-2671.0
1756899689.5986671,0,-2722.0
1756899689.6007223,0,-2799.0
1756899689.602692,0,-2884.0
1756899689.6045554,0,-2954.0
1756899689.606618,0,-3011.0
1756899689.6085744,0,-3069.0
1756899689.6104293,0,-3135.0
1756899689.6124647,0,-3199.0
1756899689.6144257,0,-3248.0
1756899689.6163938,0,-3276.0
1756899689.6183743,0,-3284.0
1756899689.6203208,0,-3284.0
1756899689.6223218,0,-3296.0
1756899689.6243052,0,-3334.0
1756899689.6262634,0,-3390.0
1756899689.6282268,0,-3441.0
1756899689.6301544,0,-3467.0
1756899689.6321087,0,-3481.0
1756899689.634125,0,-3508.0
1756899689.6360857,0,-3557.0
1756899689.638069,0,-3606.0
1756899689.6399755,0,-3634.0
1756899689.6419814,0,-3646.0
1756899689.6439123,0,-3661.0
1756899689.646059,0,-3682.0
1756899689.6478624,0,-3693.0
1756899689.649803,0,-3687.0
1756899689.6517627,0,-3683.0
1756899689.6537426,0,-3700.0
1756899689.6557915,0,-3728.0
1756899689.6576777,0,-3735.0
1756899689.6596186,0,-3711.0
1756899689.6616275,0,-3680.0
1756899689.6636012,0,-3676.0
1756899689.6655202,0,-3697.0
1756899689.6675465,0,-3706.0
1756899689.6694107,0,-3686.0
1756899689.6714287,0,-3654.0
1756899689.6734266,0,-3645.0
1756899689.6753197,0,-3663.0
1756899689.6773207,0,-3685.0
1756899689.6793249,0,-3692.0
1756899689.6812189,0,-3697.0
1756899689.6832442,0,-3724.0
1756899689.6851757,0,-3772.0
1756899689.6871395,0,-3811.0
1756899689.6892703,0,-3816.0
1756899689.6910782,0,-3797.0
1756899689.6930046,0,-3783.0
1756899689.6950405,0,-3782.0
1756899689.6971803,0,-3779.0
1756899689.698919,0,-3757.0
1756899689.7009046,0,-3719.0
1756899689.7029097,0,-3691.0
1756899689.704861,0,-3691.0
1756899689.7067804,0,-3716.0
1756899689.7087612,0,-3746.0
1756899689.7107134,0,-3761.0
1756899689.712722,0,-3753.0
1756899689.7146645,0,-3731.0
1756899689.7165525,0,-3715.0
1756899689.7186208,0,-3719.0
1756899689.7206051,0,-3740.0
1756899689.722512,0,-3756.0
1756899689.724527,0,-3749.0
1756899689.7264388,0,-3717.0
1756899689.7283459,0,-3682.0
1756899689.7303798,0,-3669.0
1756899689.7323623,0,-3691.0
1756899689.7343085,0,-3740.0
1756899689.7363248,0,-3804.0
1756899689.7382538,0,-3863.0
1756899689.7402856,0,-3909.0
1756899689.7421653,0,-3948.0
1756899689.7441885,0,-4002.0
1756899689.7460577,0,-4083.0
1756899689.7481592,0,-4182.0
1756899689.7499897,0,-4274.0
1756899689.7519891,0,-4340.0
1756899689.7539964,0,-4388.0
1756899689.7553365,-0.513671875,-4388.0
1756899689.7559204,-0.513671875,-4437.0
1756899689.7578866,-0.513671875,-4496.0
1756899689.7598407,-0.513671875,-4562.0
1756899689.761763,-0.513671875,-4627.0
1756899689.7638137,-0.513671875,-4691.0
1756899689.7657852,-0.513671875,-4759.0
1756899689.767764,-0.513671875,-4825.0
1756899689.769634,-0.513671875,-4877.0
1756899689.771655,-0.513671875,-4906.0
1756899689.773666,-0.513671875,-4922.0
1756899689.775527,-0.513671875,-4945.0
1756899689.7775893,-0.513671875,-4988.0
1756899689.779544,-0.513671875,-5043.0
1756899689.7814317,-0.513671875,-5091.0
1756899689.7834332,-0.513671875,-5116.0
1756899689.7853975,-0.513671875,-5123.0
1756899689.7874088,-0.513671875,-5131.0
1756899689.789331,-0.513671875,-5152.0
1756899689.7912908,-0.513671875,-5182.0
1756899689.793292,-0.513671875,-5212.0
1756899689.795226,-0.513671875,-5232.0
1756899689.7975,-0.513671875,-5244.0
1756899689.7991583,-0.513671875,-5253.0
1756899689.8010445,-0.513671875,-5257.0
1756899689.8031428,-0.513671875,-5251.0
1756899689.8050115,-0.513671875,-5237.0
1756899689.8070252,-0.513671875,-5223.0
1756899689.8090408,-0.513671875,-5217.0
1756899689.8107886,-0.513671875,-5215.0
1756899689.8130188,-0.513671875,-5207.0
1756899689.8149264,-0.513671875,-5186.0
1756899689.8168826,-0.513671875,-5156.0
1756899689.818857,-0.513671875,-5129.0
1756899689.8208756,-0.513671875,-5103.0
1756899689.822736,-0.513671875,-5072.0
1756899689.824701,-0.513671875,-5035.0
1756899689.8267114,-0.513671875,-5000.0
1756899689.828634,-0.513671875,-4975.0
1756899689.8303094,-0.66552734375,-4975.0
1756899689.8306048,-0.66552734375,-4949.0
1756899689.8326015,-0.66552734375,-4905.0
1756899689.8345351,-0.66552734375,-4842.0
1756899689.8400013,-0.66552734375,-4779.0
1756899689.8455613,-0.66552734375,-4734.0
1756899689.84576,-0.66552734375,-4705.0
1756899689.8459542,-0.66552734375,-4673.0
1756899689.8461478,-0.66552734375,-4627.0
1756899689.8502116,-0.66552734375,-4579.0
1756899689.8504124,-0.66552734375,-4548.0
1756899689.8507164,-0.66552734375,-4536.0
1756899689.8522158,-0.66552734375,-4529.0
1756899689.8541873,-0.66552734375,-4514.0
1756899689.8561919,-0.66552734375,-4489.0
1756899689.858074,-0.66552734375,-4453.0
1756899689.8600764,-0.66552734375,-4403.0
1756899689.8620384,-0.66552734375,-4337.0
1756899689.864001,-0.66552734375,-4273.0
1756899689.8659809,-0.66552734375,-4229.0
1756899689.8679392,-0.66552734375,-4203.0
1756899689.8699431,-0.66552734375,-4168.0
1756899689.8720043,-0.66552734375,-4111.0
1756899689.873878,-0.66552734375,-4050.0
1756899689.875829,-0.66552734375,-4019.0
1756899689.877785,-0.66552734375,-4022.0
1756899689.8798602,-0.66552734375,-4029.0
1756899689.8817184,-0.66552734375,-4013.0
1756899689.8837008,-0.66552734375,-3984.0
1756899689.8856716,-0.66552734375,-3968.0
1756899689.8876088,-0.66552734375,-3973.0
1756899689.8896065,-0.66552734375,-3982.0
1756899689.891544,-0.66552734375,-3982.0
1756899689.8934724,-0.66552734375,-3985.0
1756899689.894986,-0.802734375,-3985.0
1756899689.8955019,-0.802734375,-3993.0
1756899689.8985202,-0.802734375,-3973.0
1756899689.899412,-0.802734375,-3879.0
1756899689.9014056,-0.802734375,-3711.0
1756899689.9033124,-0.802734375,-3527.0
1756899689.9053137,-0.802734375,-3383.0
1756899689.9072797,-0.802734375,-3280.0
1756899689.9092505,-0.802734375,-3175.0
1756899689.9111474,-0.802734375,-3045.0
1756899689.913133,-0.802734375,-2921.0
1756899689.9151025,-0.802734375,-2852.0
1756899689.9171002,-0.802734375,-2861.0
1756899689.9190714,-0.802734375,-2927.0
1756899689.9210613,-0.802734375,-3014.0
1756899689.9229078,-0.802734375,-3091.0
1756899689.9249957,-0.802734375,-3135.0
1756899689.9269385,-0.802734375,-3142.0
1756899689.9288602,-0.802734375,-3139.0
1756899689.9308376,-0.802734375,-3161.0
1756899689.9327419,-0.802734375,-3222.0
1756899689.9347527,-0.802734375,-3288.0
1756899689.936759,-0.802734375,-3325.0
1756899689.9387429,-0.802734375,-3347.0
1756899689.9406054,-0.802734375,-3408.0
1756899689.9425697,-0.802734375,-3545.0
1756899689.944639,-0.802734375,-3735.0
1756899689.9465497,-0.802734375,-3940.0
1756899689.948423,-0.802734375,-4154.0
1756899689.950477,-0.802734375,-4397.0
1756899689.9523964,-0.802734375,-4654.0
1756899689.9544106,-0.802734375,-4868.0
1756899689.9564173,-0.802734375,-4992.0
1756899689.9583192,-0.802734375,-5034.0
1756899689.9602983,-0.802734375,-5036.0
1756899689.9622333,-0.802734375,-5010.0
1756899689.9642265,-0.802734375,-4929.0
1756899689.966139,-0.88037109375,-4929.0
1756899689.9661944,-0.88037109375,-4778.0
1756899689.9682465,-0.88037109375,-4593.0
1756899689.9700925,-0.88037109375,-4433.0
1756899689.9721,-0.88037109375,-4326.0
1756899689.9741833,-0.88037109375,-4249.0
1756899689.9760487,-0.88037109375,-4180.0
1756899689.9780338,-0.88037109375,-4129.0
1756899689.9799583,-0.88037109375,-4117.0
1756899689.9819639,-0.88037109375,-4136.0
1756899689.983827,-0.88037109375,-4148.0
1756899689.985901,-0.88037109375,-4131.0
1756899689.9878385,-0.88037109375,-4094.0
1756899689.989793,-0.88037109375,-4056.0
1756899689.9917746,-0.88037109375,-4016.0
1756899689.9936867,-0.88037109375,-3957.0
1756899689.995724,-0.88037109375,-3870.0
1756899689.9977129,-0.88037109375,-3776.0
1756899689.9995666,-0.88037109375,-3700.0
1756899690.0016434,-0.88037109375,-3653.0
1756899690.003494,-0.88037109375,-3623.0
1756899690.0054815,-0.88037109375,-3589.0
1756899690.007531,-0.88037109375,-3540.0
1756899690.0094929,-0.88037109375,-3480.0
1756899690.0113091,-0.88037109375,-3425.0
1756899690.013377,-0.88037109375,-3384.0
1756899690.0152826,-0.88037109375,-3363.0
1756899690.0173423,-0.88037109375,-3358.0
1756899690.0193014,-0.88037109375,-3369.0
1756899690.021294,-0.88037109375,-3397.0
1756899690.0232093,-0.88037109375,-3450.0
1756899690.0251205,-0.88037109375,-3532.0
1756899690.0271683,-0.88037109375,-3628.0
1756899690.0290918,-0.88037109375,-3711.0
1756899690.0310664,-0.88037109375,-3754.0
1756899690.033027,-0.88037109375,-3751.0
1756899690.034276,-0.86474609375,-3751.0
1756899690.03499,-0.86474609375,-3717.0
1756899690.0369873,-0.86474609375,-3680.0
1756899690.0389173,-0.86474609375,-3652.0
1756899690.040854,-0.86474609375,-3631.0
1756899690.0428839,-0.86474609375,-3609.0
1756899690.0449657,-0.86474609375,-3591.0
1756899690.0467322,-0.86474609375,-3592.0
1756899690.0645428,-0.86474609375,-3617.0
1756899690.0648372,-0.86474609375,-3655.0
1756899690.065054,-0.86474609375,-3689.0
1756899690.0652587,-0.86474609375,-3709.0
1756899690.0654564,-0.86474609375,-3711.0
1756899690.0656555,-0.86474609375,-3695.0
1756899690.0658507,-0.86474609375,-3669.0
1756899690.066049,-0.86474609375,-3648.0
1756899690.0662498,-0.86474609375,-3649.0
1756899690.0664482,-0.86474609375,-3664.0
1756899690.068356,-0.86474609375,-3669.0
1756899690.0703044,-0.86474609375,-3648.0
1756899690.0723336,-0.86474609375,-3615.0
1756899690.0852118,-0.86474609375,-3602.0
1756899690.0854416,-0.86474609375,-3622.0
1756899690.085639,-0.86474609375,-3651.0
1756899690.085848,-0.86474609375,-3655.0
1756899690.0860448,-0.86474609375,-3625.0
1756899690.086242,-0.86474609375,-3585.0
1756899690.0864398,-0.86474609375,-3563.0
1756899690.088013,-0.86474609375,-3562.0
1756899690.106112,-0.763671875,-3562.0
1756899690.1072328,-0.763671875,-3569.0
1756899690.1077662,-0.763671875,-3573.0
1756899690.108272,-0.763671875,-3579.0
1756899690.108732,-0.763671875,-3594.0
1756899690.110373,-0.763671875,-3615.0
1756899690.1122158,-0.763671875,-3634.0
1756899690.1126888,-0.763671875,-3652.0
1756899690.1131434,-0.763671875,-3677.0
1756899690.113587,-0.763671875,-3713.0
1756899690.1140294,-0.763671875,-3757.0
1756899690.1145844,-0.763671875,-3789.0
1756899690.115087,-0.763671875,-3790.0
1756899690.1158133,-0.763671875,-3757.0
1756899690.1161427,-0.763671875,-3710.0
1756899690.117422,-0.763671875,-3675.0
1756899690.119497,-0.763671875,-3668.0
1756899690.121365,-0.763671875,-3676.0
1756899690.1233566,-0.763671875,-3673.0
1756899690.1253119,-0.763671875,-3650.0
1756899690.1273394,-0.763671875,-3622.0
1756899690.1293013,-0.763671875,-3619.0
1756899690.132457,-0.763671875,-3657.0
1756899690.1331751,-0.763671875,-3725.0
1756899690.1399996,-0.763671875,-3796.0
1756899690.1402316,-0.763671875,-3848.0
1756899690.1404285,-0.763671875,-3876.0
1756899690.1421807,-0.763671875,-3893.0
1756899690.143341,-0.763671875,-3911.0
1756899690.1449883,-0.763671875,-3940.0
1756899690.1468983,-0.763671875,-3974.0
1756899690.1489792,-0.763671875,-4006.0
1756899690.1508632,-0.763671875,-4034.0
1756899690.1532269,-0.763671875,-4066.0
1756899690.1691585,-0.763671875,-4111.0
1756899690.1694422,-0.763671875,-4171.0
1756899690.169644,-0.763671875,-4239.0
1756899690.170263,-0.763671875,-4302.0
1756899690.1707225,-0.763671875,-4354.0
1756899690.1709898,-0.763671875,-4393.0
1756899690.171189,-0.763671875,-4421.0
1756899690.1713872,-0.763671875,-4435.0
1756899690.1716168,-0.763671875,-4433.0
1756899690.1740382,-0.763671875,-4417.0
1756899690.1743617,-0.55224609375,-4417.0
1756899690.174496,-0.55224609375,-4393.0
1756899690.1764681,-0.55224609375,-4371.0
1756899690.1783948,-0.55224609375,-4362.0
1756899690.1811838,-0.55224609375,-4371.0
1756899690.1855063,-0.55224609375,-4393.0
1756899690.1858037,-0.55224609375,-4415.0
1756899690.186545,-0.55224609375,-4426.0
1756899690.1882184,-0.55224609375,-4427.0
1756899690.190181,-0.55224609375,-4428.0
1756899690.192203,-0.55224609375,-4441.0
1756899690.1940444,-0.55224609375,-4464.0
1756899690.2011168,-0.55224609375,-4487.0
1756899690.2013416,-0.55224609375,-4496.0
1756899690.201599,-0.55224609375,-4489.0
1756899690.2019923,-0.55224609375,-4478.0
1756899690.2042174,-0.55224609375,-4483.0
1756899690.227512,-0.55224609375,-4507.0
1756899690.2278104,-0.55224609375,-4535.0
1756899690.2280092,-0.55224609375,-4540.0
1756899690.228247,-0.55224609375,-4518.0
1756899690.2284482,-0.55224609375,-4486.0
1756899690.2286978,-0.55224609375,-4471.0
1756899690.2288938,-0.55224609375,-4468.0
1756899690.2291248,-0.55224609375,-4454.0
1756899690.2294486,-0.55224609375,-4414.0
1756899690.2296507,-0.55224609375,-4367.0
1756899690.2298894,-0.55224609375,-4347.0
1756899690.2300897,-0.55224609375,-4357.0
1756899690.2462595,-0.395263671875,-4357.0
1756899690.2544415,-0.395263671875,-4368.0
1756899690.254726,-0.395263671875,-4359.0
1756899690.2549877,-0.395263671875,-4345.0
1756899690.2551858,-0.395263671875,-4357.0
1756899690.2554598,-0.395263671875,-4399.0
1756899690.2556586,-0.395263671875,-4434.0
1756899690.2558565,-0.395263671875,-4428.0
1756899690.2560537,-0.395263671875,-4385.0
1756899690.2562492,-0.395263671875,-4342.0
1756899690.2564442,-0.395263671875,-4330.0
1756899690.2566383,-0.395263671875,-4344.0
1756899690.25685,-0.395263671875,-4359.0
1756899690.2570462,-0.395263671875,-4354.0
1756899690.257241,-0.395263671875,-4329.0
1756899690.257438,-0.395263671875,-4301.0
1756899690.2592454,-0.395263671875,-4288.0
1756899690.2664607,-0.395263671875,-4296.0
1756899690.266702,-0.395263671875,-4320.0
1756899690.2668996,-0.395263671875,-4350.0
1756899690.2670968,-0.395263671875,-4374.0
1756899690.2687445,-0.395263671875,-4387.0
1756899690.2707598,-0.395263671875,-4379.0
1756899690.2727752,-0.395263671875,-4349.0
1756899690.2746658,-0.395263671875,-4304.0
1756899690.277267,-0.395263671875,-4263.0
1756899690.2785738,-0.395263671875,-4241.0
1756899690.2805367,-0.395263671875,-4230.0
1756899690.282499,-0.395263671875,-4208.0
1756899690.284456,-0.395263671875,-4160.0
1756899690.2894886,-0.395263671875,-4103.0
1756899690.2898438,-0.395263671875,-4067.0
1756899690.2904778,-0.395263671875,-4070.0
1756899690.2924538,-0.395263671875,-4106.0
1756899690.2943146,-0.395263671875,-4156.0
1756899690.3072584,-0.395263671875,-4199.0
1756899690.3075657,-0.395263671875,-4223.0
1756899690.307767,-0.395263671875,-4227.0
1756899690.3080063,-0.395263671875,-4233.0
1756899690.3083408,-0.395263671875,-4266.0
1756899690.3086991,-0.395263671875,-4330.0
1756899690.3089035,-0.395263671875,-4397.0
1756899690.310018,-0.395263671875,-4436.0
1756899690.3120015,-0.395263671875,-4446.0
1756899690.321169,-0.395263671875,-4456.0
1756899690.321409,-0.395263671875,-4486.0
1756899690.321705,-0.395263671875,-4527.0
1756899690.3219068,-0.395263671875,-4561.0
1756899690.3224802,-0.395263671875,-4596.0
1756899690.3232498,-0.3740234375,-4596.0
1756899690.3237672,-0.3740234375,-4654.0
1756899690.3257358,-0.3740234375,-4729.0
1756899690.3277435,-0.3740234375,-4783.0
1756899690.3297029,-0.3740234375,-4789.0
1756899690.333343,-0.3740234375,-4769.0
1756899690.3336096,-0.3740234375,-4769.0
1756899690.335633,-0.3740234375,-4798.0
1756899690.337591,-0.3740234375,-4817.0
1756899690.3396077,-0.3740234375,-4783.0
1756899690.3415892,-0.3740234375,-4707.0
1756899690.3435173,-0.3740234375,-4642.0
1756899690.3455312,-0.3740234375,-4619.0
1756899690.347791,-0.3740234375,-4618.0
1756899690.3493965,-0.3740234375,-4602.0
1756899690.3513622,-0.3740234375,-4561.0
1756899690.356926,-0.3740234375,-4521.0
1756899690.3587499,-0.3740234375,-4513.0
1756899690.3590417,-0.3740234375,-4535.0
1756899690.3592412,-0.3740234375,-4566.0
1756899690.361417,-0.3740234375,-4583.0
1756899690.363351,-0.3740234375,-4581.0
1756899690.3654056,-0.3740234375,-4567.0
1756899690.3701417,-0.3740234375,-4553.0
1756899690.3703659,-0.3740234375,-4545.0
1756899690.3715646,-0.3740234375,-4542.0
1756899690.372924,-0.3740234375,-4535.0
1756899690.374754,-0.3740234375,-4515.0
1756899690.3767233,-0.3740234375,-4484.0
1756899690.3787944,-0.3740234375,-4454.0
1756899690.381382,-0.3740234375,-4434.0
1756899690.382657,-0.3740234375,-4427.0
1756899690.3846035,-0.3740234375,-4421.0
1756899690.386063,-0.313720703125,-4421.0
1756899690.3865843,-0.313720703125,-4403.0
1756899690.3885853,-0.313720703125,-4368.0
1756899690.3904903,-0.313720703125,-4315.0
1756899690.3926365,-0.313720703125,-4256.0
1756899690.3944132,-0.313720703125,-4200.0
1756899690.3963926,-0.313720703125,-4157.0
1756899690.3985546,-0.313720703125,-4123.0
1756899690.4005446,-0.313720703125,-4091.0
1756899690.4024825,-0.313720703125,-4056.0
1756899690.4044785,-0.313720703125,-4018.0
1756899690.4064436,-0.313720703125,-3985.0
1756899690.4085577,-0.313720703125,-3961.0
1756899690.4103398,-0.313720703125,-3938.0
1756899690.412276,-0.313720703125,-3907.0
1756899690.4142368,-0.313720703125,-3866.0
1756899690.4175863,-0.313720703125,-3816.0
1756899690.4190323,-0.313720703125,-3763.0
1756899690.4219701,-0.313720703125,-3707.0
1756899690.4220767,-0.313720703125,-3654.0
1756899690.4245863,-0.313720703125,-3605.0
1756899690.4260945,-0.313720703125,-3555.0
1756899690.429539,-0.313720703125,-3499.0
1756899690.4299529,-0.313720703125,-3445.0
1756899690.434007,-0.313720703125,-3415.0
1756899690.434086,-0.313720703125,-3428.0
1756899690.436543,-0.313720703125,-3474.0
1756899690.4377072,-0.313720703125,-3513.0
1756899690.4410026,-0.313720703125,-3512.0
1756899690.4415543,-0.313720703125,-3483.0
1756899690.44367,-0.313720703125,-3467.0
1756899690.4457207,-0.313720703125,-3491.0
1756899690.447564,-0.313720703125,-3539.0
1756899690.4496593,-0.313720703125,-3561.0
1756899690.451394,-0.313720703125,-3532.0
1756899690.453403,-0.313720703125,-3476.0
1756899690.454221,-0.1025390625,-3476.0
1756899690.4554226,-0.1025390625,-3443.0
1756899690.4573364,-0.1025390625,-3458.0
1756899690.4593074,-0.1025390625,-3502.0
1756899690.4612184,-0.1025390625,-3544.0
1756899690.4633665,-0.1025390625,-3570.0
1756899690.465307,-0.1025390625,-3592.0
1756899690.4672894,-0.1025390625,-3617.0
1756899690.4696567,-0.1025390625,-3639.0
1756899690.4714231,-0.1025390625,-3646.0
1756899690.473385,-0.1025390625,-3646.0
1756899690.4754033,-0.1025390625,-3654.0
1756899690.4773,-0.1025390625,-3665.0
1756899690.4792538,-0.1025390625,-3653.0
1756899690.4812315,-0.1025390625,-3601.0
1756899690.483117,-0.1025390625,-3534.0
1756899690.4862056,-0.1025390625,-3499.0
1756899690.4869585,-0.1025390625,-3514.0
1756899690.488915,-0.1025390625,-3550.0
1756899690.4908886,-0.1025390625,-3565.0
1756899690.4929955,-0.1025390625,-3551.0
1756899690.5011587,-0.1025390625,-3539.0
1756899690.50144,-0.1025390625,-3557.0
1756899690.5015295,-0.1025390625,-3591.0
1756899690.501602,-0.1025390625,-3597.0
1756899690.502663,-0.1025390625,-3552.0
1756899690.5046327,-0.1025390625,-3476.0
1756899690.5065837,-0.1025390625,-3406.0
1756899690.5085464,-0.1025390625,-3354.0
1756899690.5105093,-0.1025390625,-3301.0
1756899690.5125773,-0.1025390625,-3226.0
1756899690.5145311,-0.1025390625,-3130.0
1756899690.5167215,-0.1025390625,-3040.0
1756899690.5193532,-0.1025390625,-2974.0
1756899690.5204473,-0.1025390625,-2921.0
1756899690.5260997,0.1978759765625,-2921.0
1756899690.530309,0.1978759765625,-2859.0
1756899690.5304587,0.1978759765625,-2784.0
1756899690.530582,0.1978759765625,-2714.0
1756899690.5307035,0.1978759765625,-2664.0
1756899690.530826,0.1978759765625,-2627.0
1756899690.5322134,0.1978759765625,-2572.0
1756899690.5341575,0.1978759765625,-2482.0
1756899690.5360613,0.1978759765625,-2375.0
1756899690.5380363,0.1978759765625,-2282.0
1756899690.5404718,0.1978759765625,-2216.0
1756899690.5419981,0.1978759765625,-2165.0
1756899690.5438907,0.1978759765625,-2111.0
1756899690.5460641,0.1978759765625,-2050.0
1756899690.547853,0.1978759765625,-1991.0
1756899690.5501873,0.1978759765625,-1940.0
1756899690.5518873,0.1978759765625,-1891.0
1756899690.5542016,0.1978759765625,-1848.0
1756899690.5598307,0.1978759765625,-1820.0
1756899690.5599167,0.1978759765625,-1815.0
1756899690.5599632,0.1978759765625,-1816.0
1756899690.5615609,0.1978759765625,-1796.0
1756899690.5637333,0.1978759765625,-1753.0
1756899690.5654612,0.1978759765625,-1715.0
1756899690.5684073,0.1978759765625,-1714.0
1756899690.5694015,0.1978759765625,-1749.0
1756899690.571333,0.1978759765625,-1788.0
1756899690.573291,0.1978759765625,-1806.0
1756899690.5761197,0.1978759765625,-1805.0
1756899690.577217,0.1978759765625,-1802.0
1756899690.5794644,0.1978759765625,-1805.0
1756899690.5813098,0.1978759765625,-1816.0
1756899690.5831885,0.1978759765625,-1840.0
1756899690.5940259,0.1978759765625,-1879.0
1756899690.5941288,0.4814453125,-1879.0
1756899690.5941665,0.4814453125,-1927.0
1756899690.5942645,0.4814453125,-1961.0
1756899690.5943599,0.4814453125,-1963.0
1756899690.5944567,0.4814453125,-1940.0
1756899690.597213,0.4814453125,-1920.0
1756899690.597338,0.4814453125,-1923.0
1756899690.5988648,0.4814453125,-1947.0
1756899690.6008048,0.4814453125,-1965.0
1756899690.6028273,0.4814453125,-1956.0
1756899690.6047285,0.4814453125,-1923.0
1756899690.606755,0.4814453125,-1897.0
1756899690.608701,0.4814453125,-1914.0
1756899690.6106253,0.4814453125,-1982.0
1756899690.6127348,0.4814453125,-2071.0
1756899690.6146588,0.4814453125,-2134.0
1756899690.61681,0.4814453125,-2159.0
1756899690.6195762,0.4814453125,-2178.0
1756899690.6208072,0.4814453125,-2230.0
1756899690.6230974,0.4814453125,-2307.0
1756899690.625542,0.4814453125,-2358.0
1756899690.626625,0.4814453125,-2347.0
1756899690.628555,0.4814453125,-2299.0
1756899690.630409,0.4814453125,-2268.0
1756899690.6324224,0.4814453125,-2281.0
1756899690.634351,0.4814453125,-2316.0
1756899690.6363587,0.4814453125,-2338.0
1756899690.6383324,0.4814453125,-2336.0
1756899690.6404293,0.4814453125,-2336.0
1756899690.6423216,0.4814453125,-2364.0
1756899690.6441221,0.4814453125,-2422.0
1756899690.646197,0.4814453125,-2487.0
1756899690.6483514,0.4814453125,-2529.0
1756899690.6501555,0.4814453125,-2525.0
1756899690.6634674,0.4814453125,-2481.0
1756899690.6637318,0.4814453125,-2426.0
1756899690.6638145,0.4814453125,-2401.0
1756899690.6665065,0.69384765625,-2401.0
1756899690.670069,0.69384765625,-2417.0
1756899690.6701741,0.69384765625,-2444.0
1756899690.6704607,0.69384765625,-2441.0
1756899690.670512,0.69384765625,-2399.0
1756899690.6705592,0.69384765625,-2357.0
1756899690.6706052,0.69384765625,-2357.0
1756899690.6706517,0.69384765625,-2397.0
1756899690.6719954,0.69384765625,-2436.0
1756899690.6735308,0.69384765625,-2437.0
1756899690.675549,0.69384765625,-2404.0
1756899690.6774306,0.69384765625,-2382.0
1756899690.679493,0.69384765625,-2404.0
1756899690.6814766,0.69384765625,-2459.0
1756899690.6833289,0.69384765625,-2512.0
1756899690.685367,0.69384765625,-2541.0
1756899690.687345,0.69384765625,-2552.0
1756899690.6893947,0.69384765625,-2567.0
1756899690.6920614,0.69384765625,-2591.0
1756899690.6931915,0.69384765625,-2616.0
1756899690.6951423,0.69384765625,-2626.0
1756899690.6971066,0.69384765625,-2614.0
1756899690.699096,0.69384765625,-2580.0
1756899690.7010295,0.69384765625,-2531.0
1756899690.7029846,0.69384765625,-2487.0
1756899690.704966,0.69384765625,-2471.0
1756899690.7127237,0.69384765625,-2490.0
1756899690.7131248,0.69384765625,-2523.0
1756899690.713586,0.69384765625,-2537.0
1756899690.7139585,0.69384765625,-2518.0
1756899690.7162316,0.69384765625,-2487.0
1756899690.716875,0.69384765625,-2475.0
1756899690.7187264,0.69384765625,-2491.0
1756899690.721481,0.69384765625,-2510.0
1756899690.7227395,0.69384765625,-2500.0
1756899690.7250938,0.69384765625,-2453.0
1756899690.7265534,0.69384765625,-2391.0
1756899690.728528,0.69384765625,-2345.0
1756899690.7304509,0.69384765625,-2332.0
1756899690.732544,0.69384765625,-2339.0
1756899690.7341845,0.8671875,-2339.0
1756899690.7347183,0.8671875,-2343.0
1756899690.7367022,0.8671875,-2338.0
1756899690.738686,0.8671875,-2342.0
1756899690.7405794,0.8671875,-2366.0
1756899690.7426126,0.8671875,-2392.0
1756899690.7445402,0.8671875,-2388.0
1756899690.746463,0.8671875,-2347.0
1756899690.7489681,0.8671875,-2307.0
1756899690.7502706,0.8671875,-2303.0
1756899690.7523308,0.8671875,-2323.0
1756899690.7543314,0.8671875,-2315.0
1756899690.7562072,0.8671875,-2251.0
1756899690.7580569,0.8671875,-2170.0
1756899690.7600598,0.8671875,-2139.0
1756899690.7620077,0.8671875,-2182.0
1756899690.7639592,0.8671875,-2262.0
1756899690.7659223,0.8671875,-2339.0
1756899690.7678132,0.8671875,-2420.0
1756899690.7697864,0.8671875,-2546.0
1756899690.7717974,0.8671875,-2738.0
1756899690.77371,0.8671875,-2972.0
1756899690.7877758,0.8671875,-3219.0
1756899690.7880242,0.8671875,-3469.0
1756899690.7930493,0.8671875,-3731.0
1756899690.7934422,0.8671875,-3999.0
1756899690.7936463,0.8671875,-4231.0
1756899690.7937698,0.8671875,-4382.0
1756899690.7938874,0.8671875,-4440.0
1756899690.794178,0.8671875,-4440.0
1756899690.7942996,0.8671875,-4425.0
1756899690.7945087,0.8671875,-4403.0
1756899690.7959301,0.8671875,-4341.0
1756899690.7977455,0.8671875,-4207.0
1756899690.7994034,0.8671875,-4021.0
1756899690.8031018,0.8671875,-3855.0
1756899690.803252,0.8671875,-3771.0
1756899690.8052804,0.8671875,-3758.0
1756899690.8071415,0.8671875,-3747.0
1756899690.807219,0.87255859375,-3747.0
1756899690.8091912,0.87255859375,-3694.0
1756899690.8111033,0.87255859375,-3627.0
1756899690.8159697,0.87255859375,-3607.0
1756899690.8162851,0.87255859375,-3646.0
1756899690.8174367,0.87255859375,-3691.0
1756899690.8192132,0.87255859375,-3683.0
1756899690.822273,0.87255859375,-3621.0
1756899690.823156,0.87255859375,-3552.0
1756899690.82492,0.87255859375,-3509.0
1756899690.8355708,0.87255859375,-3485.0
1756899690.8357794,0.87255859375,-3461.0
1756899690.8365052,0.87255859375,-3434.0
1756899690.8366945,0.87255859375,-3417.0
1756899690.8368533,0.87255859375,-3416.0
1756899690.8370082,0.87255859375,-3421.0
1756899690.8404336,0.87255859375,-3415.0
1756899690.8406255,0.87255859375,-3392.0
1756899690.847028,0.87255859375,-3358.0
1756899690.8519197,0.87255859375,-3323.0
1756899690.8520865,0.87255859375,-3289.0
1756899690.852208,0.87255859375,-3253.0
1756899690.8523257,0.87255859375,-3208.0
1756899690.8569398,0.87255859375,-3156.0
1756899690.8570983,0.87255859375,-3117.0
1756899690.8572185,0.87255859375,-3115.0
1756899690.858495,0.87255859375,-3148.0
1756899690.8603086,0.87255859375,-3185.0
1756899690.8624167,0.87255859375,-3196.0
1756899690.864367,0.87255859375,-3187.0
1756899690.8663185,0.87255859375,-3188.0
1756899690.8684664,0.87255859375,-3201.0
1756899690.87055,0.87255859375,-3195.0
1756899690.8722823,0.87255859375,-3143.0
1756899690.8740706,0.87255859375,-3070.0
1756899690.8742332,0.76806640625,-3070.0
1756899690.876274,0.76806640625,-3025.0
1756899690.8787785,0.76806640625,-3017.0
1756899690.8801003,0.76806640625,-2997.0
1756899690.881994,0.76806640625,-2921.0
1756899690.8839605,0.76806640625,-2819.0
1756899690.8859518,0.76806640625,-2769.0
1756899690.8881133,0.76806640625,-2808.0
1756899690.8901331,0.76806640625,-2882.0
1756899690.8918898,0.76806640625,-2900.0
1756899690.8947244,0.76806640625,-2841.0
1756899690.897531,0.76806640625,-2765.0
1756899690.897691,0.76806640625,-2748.0
1756899690.8998165,0.76806640625,-2797.0
1756899690.9017065,0.76806640625,-2850.0
1756899690.9037259,0.76806640625,-2854.0
1756899690.9060688,0.76806640625,-2818.0
1756899690.9076257,0.76806640625,-2791.0
1756899690.9095514,0.76806640625,-2803.0
1756899690.9113803,0.76806640625,-2841.0
1756899690.9136076,0.76806640625,-2866.0
1756899690.916295,0.76806640625,-2857.0
1756899690.917503,0.76806640625,-2822.0
1756899690.9195876,0.76806640625,-2785.0
1756899690.9212735,0.76806640625,-2759.0
1756899690.9245348,0.76806640625,-2743.0
1756899690.9262397,0.76806640625,-2728.0
1756899690.927247,0.76806640625,-2708.0
1756899690.9291608,0.76806640625,-2685.0
1756899690.931064,0.76806640625,-2669.0
1756899690.9353852,0.76806640625,-2668.0
1756899690.935517,0.76806640625,-2677.0
1756899690.9395454,0.76806640625,-2688.0
1756899690.9414155,0.76806640625,-2693.0
1756899690.9416578,0.76806640625,-2699.0
1756899690.943075,0.76806640625,-2714.0
1756899690.9461281,0.76806640625,-2736.0
1756899690.9468048,0.59765625,-2736.0
1756899690.9470696,0.59765625,-2750.0
1756899690.948991,0.59765625,-2741.0
1756899690.95091,0.59765625,-2712.0
1756899690.9527566,0.59765625,-2680.0
1756899690.9545734,0.59765625,-2660.0
1756899690.9567473,0.59765625,-2645.0
1756899690.9587781,0.59765625,-2619.0
1756899690.960669,0.59765625,-2584.0
1756899690.9626422,0.59765625,-2557.0
1756899690.964466,0.59765625,-2557.0
1756899690.9665825,0.59765625,-2577.0
1756899690.968601,0.59765625,-2587.0
1756899690.9704864,0.59765625,-2570.0
1756899690.9725606,0.59765625,-2540.0
1756899690.9743183,0.59765625,-2531.0
1756899690.9763541,0.59765625,-2562.0
1756899690.9783518,0.59765625,-2612.0
1756899690.9802747,0.59765625,-2644.0
1756899690.982388,0.59765625,-2641.0
1756899690.9840305,0.59765625,-2624.0
1756899690.987629,0.59765625,-2630.0
1756899690.9884832,0.59765625,-2674.0
1756899690.9967046,0.59765625,-2730.0
1756899691.00378,0.59765625,-2759.0
1756899691.0042026,0.59765625,-2751.0
1756899691.0044456,0.59765625,-2731.0
1756899691.0046792,0.59765625,-2729.0
1756899691.004966,0.59765625,-2745.0
1756899691.0051975,0.59765625,-2752.0
1756899691.005427,0.59765625,-2736.0
1756899691.0058825,0.59765625,-2714.0
1756899691.0078561,0.59765625,-2703.0
1756899691.0100064,0.59765625,-2696.0
1756899691.0119095,0.59765625,-2673.0
1756899691.0161939,0.59765625,-2635.0
1756899691.0163062,0.59765625,-2616.0
1756899691.0197008,0.59765625,-2643.0
1756899691.0199933,0.59765625,-2699.0
1756899691.0213597,0.59765625,-2739.0
1756899691.0215592,0.466064453125,-2739.0
1756899691.024536,0.466064453125,-2738.0
1756899691.0255551,0.466064453125,-2720.0
1756899691.0275083,0.466064453125,-2718.0
1756899691.0295084,0.466064453125,-2743.0
1756899691.0312188,0.466064453125,-2768.0
1756899691.0336194,0.466064453125,-2769.0
1756899691.0354152,0.466064453125,-2745.0
1756899691.037357,0.466064453125,-2712.0
1756899691.0393677,0.466064453125,-2687.0
1756899691.0413547,0.466064453125,-2675.0
1756899691.043206,0.466064453125,-2676.0
1756899691.051743,0.466064453125,-2684.0
1756899691.0519967,0.466064453125,-2693.0
1756899691.0521202,0.466064453125,-2699.0
1756899691.0522387,0.466064453125,-2707.0
1756899691.0528455,0.466064453125,-2722.0
1756899691.0549433,0.466064453125,-2737.0
1756899691.0568879,0.466064453125,-2740.0
1756899691.0589795,0.466064453125,-2732.0
1756899691.063236,0.466064453125,-2729.0
1756899691.069007,0.466064453125,-2743.0
1756899691.0691133,0.466064453125,-2764.0
1756899691.0702035,0.466064453125,-2764.0
1756899691.0704513,0.466064453125,-2734.0
1756899691.0704992,0.466064453125,-2699.0
1756899691.0729856,0.466064453125,-2691.0
1756899691.0743918,0.466064453125,-2714.0
1756899691.0765371,0.466064453125,-2738.0
1756899691.0783067,0.466064453125,-2725.0
1756899691.0802746,0.466064453125,-2672.0
1756899691.0822635,0.466064453125,-2610.0
1756899691.084343,0.466064453125,-2577.0
1756899691.0861003,0.32177734375,-2577.0
1756899691.0863268,0.32177734375,-2586.0
1756899691.088208,0.32177734375,-2618.0
1756899691.0902326,0.32177734375,-2642.0
1756899691.0921793,0.32177734375,-2641.0
1756899691.0940878,0.32177734375,-2621.0
1756899691.0961294,0.32177734375,-2606.0
1756899691.0980527,0.32177734375,-2613.0
1756899691.10006,0.32177734375,-2633.0
1756899691.101989,0.32177734375,-2640.0
1756899691.1040113,0.32177734375,-2616.0
1756899691.1058953,0.32177734375,-2575.0
1756899691.1077988,0.32177734375,-2544.0
1756899691.1097636,0.32177734375,-2536.0
1756899691.1117697,0.32177734375,-2547.0
1756899691.1140726,0.32177734375,-2563.0
1756899691.1157174,0.32177734375,-2584.0
1756899691.1176882,0.32177734375,-2613.0
1756899691.1196535,0.32177734375,-2641.0
1756899691.1215775,0.32177734375,-2652.0
1756899691.1236117,0.32177734375,-2645.0
1756899691.126124,0.32177734375,-2641.0
1756899691.1274984,0.32177734375,-2658.0
1756899691.1301875,0.32177734375,-2690.0
1756899691.1314318,0.32177734375,-2708.0
1756899691.1333911,0.32177734375,-2699.0
1756899691.135427,0.32177734375,-2675.0
1756899691.1374826,0.32177734375,-2662.0
1756899691.140499,0.32177734375,-2666.0
1756899691.1413257,0.32177734375,-2672.0
1756899691.1434317,0.32177734375,-2667.0
1756899691.14589,0.32177734375,-2646.0
1756899691.1472638,0.32177734375,-2620.0
1756899691.1492968,0.32177734375,-2599.0
1756899691.151181,0.32177734375,-2587.0
1756899691.1531706,0.32177734375,-2584.0
1756899691.1562097,0.32177734375,-2593.0
1756899691.157026,0.32177734375,-2618.0
1756899691.1594296,0.32177734375,-2656.0
1756899691.1608942,0.32177734375,-2705.0
1756899691.163993,0.32177734375,-2757.0
1756899691.1644144,0.168212890625,-2757.0
1756899691.164815,0.168212890625,-2805.0
1756899691.1670225,0.168212890625,-2848.0
1756899691.1687226,0.168212890625,-2884.0
1756899691.1709101,0.168212890625,-2911.0
1756899691.1726928,0.168212890625,-2926.0
1756899691.1746004,0.168212890625,-2928.0
1756899691.1767106,0.168212890625,-2923.0
1756899691.1786172,0.168212890625,-2912.0
1756899691.1806474,0.168212890625,-2891.0
1756899691.1834772,0.168212890625,-2858.0
1756899691.184453,0.168212890625,-2825.0
1756899691.1867962,0.168212890625,-2815.0
1756899691.1884184,0.168212890625,-2837.0
1756899691.1903503,0.168212890625,-2876.0
1756899691.192359,0.168212890625,-2904.0
1756899691.1964493,0.168212890625,-2910.0
1756899691.1968076,0.168212890625,-2911.0
1756899691.1985023,0.168212890625,-2930.0
1756899691.20039,0.168212890625,-2971.0
1756899691.2033613,0.168212890625,-3020.0
1756899691.2043931,0.168212890625,-3063.0
1756899691.2063427,0.168212890625,-3094.0
1756899691.2081146,0.168212890625,-3113.0
1756899691.2100954,0.168212890625,-3118.0
1756899691.212086,0.168212890625,-3112.0
1756899691.2140002,0.168212890625,-3107.0
1756899691.2160249,0.168212890625,-3115.0
1756899691.217863,0.168212890625,-3132.0
1756899691.2199144,0.168212890625,-3139.0
1756899691.2218287,0.168212890625,-3122.0
1756899691.2238443,0.168212890625,-3093.0
1756899691.2257626,0.168212890625,-3073.0
1756899691.2281969,0.168212890625,-3071.0
1756899691.2293882,0.04638671875,-3071.0
1756899691.230668,0.04638671875,-3077.0
1756899691.2320404,0.04638671875,-3081.0
1756899691.234212,0.04638671875,-3085.0
1756899691.2367644,0.04638671875,-3091.0
1756899691.237632,0.04638671875,-3099.0
1756899691.2395024,0.04638671875,-3101.0
1756899691.2415817,0.04638671875,-3101.0
1756899691.2434497,0.04638671875,-3111.0
1756899691.245495,0.04638671875,-3132.0
1756899691.247412,0.04638671875,-3142.0
1756899691.2492995,0.04638671875,-3121.0
1756899691.251251,0.04638671875,-3078.0
1756899691.2532322,0.04638671875,-3050.0
1756899691.255215,0.04638671875,-3062.0
1756899691.2571723,0.04638671875,-3098.0
1756899691.2592847,0.04638671875,-3112.0
1756899691.2618341,0.04638671875,-3083.0
1756899691.2631538,0.04638671875,-3033.0
1756899691.2669878,0.04638671875,-3008.0
1756899691.2674656,0.04638671875,-3026.0
1756899691.2719438,0.04638671875,-3057.0
1756899691.2721202,0.04638671875,-3056.0
1756899691.2729297,0.04638671875,-3004.0
1756899691.274958,0.04638671875,-2931.0
1756899691.2768753,0.04638671875,-2882.0
1756899691.2790582,0.04638671875,-2875.0
1756899691.280879,0.04638671875,-2888.0
1756899691.2827513,0.04638671875,-2875.0
1756899691.2847297,0.04638671875,-2819.0
1756899691.286742,0.04638671875,-2747.0
1756899691.2886446,0.04638671875,-2701.0
1756899691.2906241,0.04638671875,-2699.0
1756899691.2922962,-0.06927490234375,-2699.0
1756899691.292704,-0.06927490234375,-2721.0
1756899691.2955043,-0.06927490234375,-2735.0
1756899691.2967415,-0.06927490234375,-2728.0
1756899691.3002188,-0.06927490234375,-2713.0
1756899691.3015387,-0.06927490234375,-2714.0
1756899691.3024251,-0.06927490234375,-2743.0
1756899691.3044822,-0.06927490234375,-2785.0
1756899691.3063667,-0.06927490234375,-2817.0
1756899691.3083858,-0.06927490234375,-2825.0
1756899691.3103976,-0.06927490234375,-2819.0
1756899691.3122888,-0.06927490234375,-2821.0
1756899691.3142126,-0.06927490234375,-2844.0
1756899691.3161092,-0.06927490234375,-2878.0
1756899691.3182025,-0.06927490234375,-2904.0
1756899691.3201702,-0.06927490234375,-2913.0
1756899691.3220415,-0.06927490234375,-2916.0
1756899691.3240075,-0.06927490234375,-2925.0
1756899691.326218,-0.06927490234375,-2937.0
1756899691.328072,-0.06927490234375,-2937.0
1756899691.329975,-0.06927490234375,-2922.0
1756899691.3319747,-0.06927490234375,-2906.0
1756899691.3340745,-0.06927490234375,-2898.0
1756899691.3359258,-0.06927490234375,-2882.0
1756899691.337934,-0.06927490234375,-2833.0
1756899691.3399057,-0.06927490234375,-2748.0
1756899691.3463087,-0.06927490234375,-2660.0
1756899691.3465514,-0.06927490234375,-2603.0
1756899691.34675,-0.06927490234375,-2578.0
1756899691.3476737,-0.06927490234375,-2554.0
1756899691.3497643,-0.06927490234375,-2512.0
1756899691.3517072,-0.06927490234375,-2457.0
1756899691.3538017,-0.06927490234375,-2412.0
1756899691.3556018,-0.06927490234375,-2387.0
1756899691.357588,-0.06927490234375,-2375.0
1756899691.3597252,-0.06927490234375,-2370.0
1756899691.3615165,-0.06927490234375,-2375.0
1756899691.363513,-0.1966552734375,-2375.0
1756899691.36358,-0.1966552734375,-2383.0
1756899691.3658674,-0.1966552734375,-2376.0
1756899691.367252,-0.1966552734375,-2349.0
1756899691.3692894,-0.1966552734375,-2325.0
1756899691.3712406,-0.1966552734375,-2337.0
1756899691.3733172,-0.1966552734375,-2378.0
1756899691.3753717,-0.1966552734375,-2406.0
1756899691.377166,-0.1966552734375,-2379.0
1756899691.379129,-0.1966552734375,-2308.0
1756899691.381079,-0.1966552734375,-2244.0
1756899691.3831582,-0.1966552734375,-2221.0
1756899691.3862538,-0.1966552734375,-2218.0
1756899691.387198,-0.1966552734375,-2194.0
1756899691.3893304,-0.1966552734375,-2142.0
1756899691.391094,-0.1966552734375,-2092.0
1756899691.39315,-0.1966552734375,-2072.0
1756899691.3951087,-0.1966552734375,-2078.0
1756899691.3970594,-0.1966552734375,-2086.0
1756899691.3989093,-0.1966552734375,-2087.0
1756899691.405015,-0.1966552734375,-2094.0
1756899691.4064746,-0.1966552734375,-2120.0
1756899691.4069567,-0.1966552734375,-2153.0
1756899691.4097266,-0.1966552734375,-2176.0
1756899691.4101667,-0.1966552734375,-2182.0
1756899691.410601,-0.1966552734375,-2185.0
1756899691.4127069,-0.1966552734375,-2200.0
1756899691.4158888,-0.1966552734375,-2221.0
1756899691.4172966,-0.1966552734375,-2235.0
1756899691.4184618,-0.1966552734375,-2238.0
1756899691.4207733,-0.1966552734375,-2236.0
1756899691.4242573,-0.1966552734375,-2241.0
1756899691.4244702,-0.1966552734375,-2255.0
1756899691.426303,-0.1966552734375,-2272.0
1756899691.4288578,-0.1966552734375,-2279.0
1756899691.430279,-0.1966552734375,-2272.0
1756899691.4322069,-0.349365234375,-2272.0
1756899691.4333684,-0.349365234375,-2255.0
1756899691.4345853,-0.349365234375,-2242.0
1756899691.4364655,-0.349365234375,-2241.0
1756899691.4483235,-0.349365234375,-2252.0
1756899691.4485571,-0.349365234375,-2264.0
1756899691.448756,-0.349365234375,-2274.0
1756899691.448954,-0.349365234375,-2289.0
1756899691.4491508,-0.349365234375,-2317.0
1756899691.4493482,-0.349365234375,-2353.0
1756899691.4500854,-0.349365234375,-2385.0
1756899691.4519837,-0.349365234375,-2409.0
1756899691.454162,-0.349365234375,-2425.0
1756899691.4560547,-0.349365234375,-2432.0
1756899691.458007,-0.349365234375,-2422.0
1756899691.4599886,-0.349365234375,-2389.0
1756899691.461734,-0.349365234375,-2344.0
1756899691.4647393,-0.349365234375,-2308.0
1756899691.465595,-0.349365234375,-2282.0
1756899691.4679337,-0.349365234375,-2247.0
1756899691.4695911,-0.349365234375,-2193.0
1756899691.4715044,-0.349365234375,-2134.0
1756899691.473444,-0.349365234375,-2099.0
1756899691.475419,-0.349365234375,-2095.0
1756899691.47744,-0.349365234375,-2098.0
1756899691.4794343,-0.349365234375,-2085.0
1756899691.4814224,-0.349365234375,-2063.0
1756899691.4836063,-0.349365234375,-2061.0
1756899691.4854224,-0.349365234375,-2083.0
1756899691.4904854,-0.349365234375,-2105.0
1756899691.490718,-0.349365234375,-2101.0
1756899691.4912064,-0.349365234375,-2075.0
1756899691.493238,-0.349365234375,-2048.0
1756899691.4965942,-0.349365234375,-2029.0
1756899691.4971066,-0.349365234375,-2003.0
1756899691.503801,-0.349365234375,-1957.0
1756899691.5040882,-0.349365234375,-1899.0
1756899691.5043254,-0.349365234375,-1849.0
1756899691.5049667,-0.349365234375,-1811.0
1756899691.5060225,-0.482666015625,-1811.0
1756899691.5069258,-0.482666015625,-1770.0
1756899691.5091453,-0.482666015625,-1718.0
1756899691.5108223,-0.482666015625,-1669.0
1756899691.513108,-0.482666015625,-1647.0
1756899691.5147307,-0.482666015625,-1649.0
1756899691.5167687,-0.482666015625,-1649.0
1756899691.518747,-0.482666015625,-1626.0
1756899691.5207798,-0.482666015625,-1591.0
1756899691.522626,-0.482666015625,-1577.0
1756899691.5246124,-0.482666015625,-1595.0
1756899691.5265443,-0.482666015625,-1625.0
1756899691.5286157,-0.482666015625,-1637.0
1756899691.5305073,-0.482666015625,-1623.0
1756899691.5325134,-0.482666015625,-1598.0
1756899691.5344298,-0.482666015625,-1580.0
1756899691.5365021,-0.482666015625,-1564.0
1756899691.5383089,-0.482666015625,-1539.0
1756899691.5403466,-0.482666015625,-1510.0
1756899691.54226,-0.482666015625,-1495.0
1756899691.5443976,-0.482666015625,-1504.0
1756899691.5462136,-0.482666015625,-1524.0
1756899691.5485108,-0.482666015625,-1532.0
1756899691.5518682,-0.482666015625,-1522.0
1756899691.552209,-0.482666015625,-1512.0
1756899691.5564911,-0.482666015625,-1520.0
1756899691.5567527,-0.482666015625,-1541.0
1756899691.5583081,-0.482666015625,-1555.0
1756899691.5600922,-0.482666015625,-1547.0
1756899691.5622876,-0.482666015625,-1526.0
1756899691.5700622,-0.482666015625,-1510.0
1756899691.5702934,-0.482666015625,-1510.0
1756899691.5704982,-0.482666015625,-1521.0
1756899691.570701,-0.482666015625,-1540.0
1756899691.571824,-0.482666015625,-1566.0
1756899691.5736785,-0.482666015625,-1595.0
1756899691.5740974,-0.609375,-1595.0
1756899691.575699,-0.609375,-1608.0
1756899691.5776901,-0.609375,-1590.0
1756899691.579947,-0.609375,-1546.0
1756899691.5816104,-0.609375,-1508.0
1756899691.5835793,-0.609375,-1502.0
1756899691.58559,-0.609375,-1533.0
1756899691.587489,-0.609375,-1580.0
1756899691.5901647,-0.609375,-1633.0
1756899691.5913727,-0.609375,-1701.0
1756899691.5940292,-0.609375,-1814.0
1756899691.5953188,-0.609375,-1992.0
1756899691.5972664,-0.609375,-2237.0
1756899691.6004322,-0.609375,-2528.0
1756899691.6022274,-0.609375,-2828.0
1756899691.6031597,-0.609375,-3089.0
1756899691.618464,-0.609375,-3276.0
1756899691.620622,-0.609375,-3389.0
1756899691.62088,-0.609375,-3449.0
1756899691.6248808,-0.609375,-3475.0
1756899691.6374447,-0.609375,-3461.0
1756899691.6379898,-0.609375,-3382.0
1756899691.6384163,-0.609375,-3239.0
1756899691.6387472,-0.609375,-3064.0
1756899691.6391656,-0.609375,-2898.0
1756899691.639461,-0.609375,-2768.0
1756899691.6396646,-0.609375,-2678.0
1756899691.640873,-0.609375,-2625.0
1756899691.6411862,-0.609375,-2598.0
1756899691.6413863,-0.609375,-2578.0
1756899691.6417313,-0.609375,-2549.0
1756899691.642879,-0.609375,-2514.0
1756899691.6432614,-0.609375,-2496.0
1756899691.6434655,-0.609375,-2507.0
1756899691.643663,-0.609375,-2535.0
1756899691.6438594,-0.609375,-2544.0
1756899691.644414,-0.609375,-2520.0
1756899691.645893,-0.7353515625,-2520.0
1756899691.6463869,-0.7353515625,-2476.0
1756899691.6483595,-0.7353515625,-2442.0
1756899691.6503236,-0.7353515625,-2433.0
1756899691.65294,-0.7353515625,-2442.0
1756899691.6542807,-0.7353515625,-2461.0
1756899691.656265,-0.7353515625,-2489.0
1756899691.6582508,-0.7353515625,-2522.0
1756899691.6602752,-0.7353515625,-2552.0
1756899691.66218,-0.7353515625,-2573.0
1756899691.664125,-0.7353515625,-2594.0
1756899691.667766,-0.7353515625,-2627.0
1756899691.6681855,-0.7353515625,-2670.0
1756899691.6701746,-0.7353515625,-2701.0
1756899691.672239,-0.7353515625,-2705.0
1756899691.6739552,-0.7353515625,-2695.0
1756899691.676159,-0.7353515625,-2707.0
1756899691.6779568,-0.7353515625,-2752.0
1756899691.6799054,-0.7353515625,-2798.0
1756899691.6818545,-0.7353515625,-2806.0
1756899691.6867468,-0.7353515625,-2777.0
1756899691.6870143,-0.7353515625,-2759.0
1756899691.687723,-0.7353515625,-2792.0
1756899691.6896741,-0.7353515625,-2859.0
1756899691.6919086,-0.7353515625,-2907.0
1756899691.6974955,-0.7353515625,-2905.0
1756899691.697717,-0.7353515625,-2880.0
1756899691.6980062,-0.7353515625,-2881.0
1756899691.6995478,-0.7353515625,-2917.0
1756899691.701548,-0.7353515625,-2955.0
1756899691.7040672,-0.7353515625,-2962.0
1756899691.7054808,-0.7353515625,-2940.0
1756899691.7073863,-0.7353515625,-2918.0
1756899691.7093256,-0.7353515625,-2915.0
1756899691.7113495,-0.7353515625,-2928.0
1756899691.7133262,-0.7353515625,-2955.0
1756899691.713944,-0.85791015625,-2955.0
1756899691.7151814,-0.85791015625,-2997.0
1756899691.7173965,-0.85791015625,-3053.0
1756899691.7191978,-0.85791015625,-3103.0
1756899691.7211292,-0.85791015625,-3125.0
1756899691.7238302,-0.85791015625,-3120.0
1756899691.7250602,-0.85791015625,-3118.0
1756899691.7271588,-0.85791015625,-3148.0
1756899691.7290087,-0.85791015625,-3215.0
1756899691.7310004,-0.85791015625,-3299.0
1756899691.7329829,-0.85791015625,-3377.0
1756899691.7349837,-0.85791015625,-3448.0
1756899691.7370026,-0.85791015625,-3527.0
1756899691.7412841,-0.85791015625,-3626.0
1756899691.7417235,-0.85791015625,-3742.0
1756899691.7428186,-0.85791015625,-3866.0
1756899691.7447586,-0.85791015625,-3990.0
1756899691.7477093,-0.85791015625,-4113.0
1756899691.7486594,-0.85791015625,-4231.0
1756899691.75118,-0.85791015625,-4338.0
1756899691.7583585,-0.85791015625,-4430.0
1756899691.758941,-0.85791015625,-4509.0
1756899691.7591667,-0.85791015625,-4587.0
1756899691.7593815,-0.85791015625,-4665.0
1756899691.7604656,-0.85791015625,-4741.0
1756899691.762449,-0.85791015625,-4818.0
1756899691.766639,-0.85791015625,-4898.0
1756899691.7671256,-0.85791015625,-4978.0
1756899691.7683098,-0.85791015625,-5042.0
1756899691.7702546,-0.85791015625,-5073.0
1756899691.7722127,-0.85791015625,-5081.0
1756899691.7741508,-0.85791015625,-5092.0
1756899691.7764518,-0.85791015625,-5122.0
1756899691.7859876,-0.67431640625,-5122.0
1756899691.7917516,-0.67431640625,-5159.0
1756899691.792016,-0.67431640625,-5181.0
1756899691.7922168,-0.67431640625,-5185.0
1756899691.7924156,-0.67431640625,-5191.0
1756899691.7926147,-0.67431640625,-5216.0
1756899691.7928143,-0.67431640625,-5258.0
1756899691.7930129,-0.67431640625,-5304.0
1756899691.7932112,-0.67431640625,-5339.0
1756899691.7939088,-0.67431640625,-5360.0
1756899691.7957726,-0.67431640625,-5363.0
1756899691.7978747,-0.67431640625,-5348.0
1756899691.799779,-0.67431640625,-5318.0
1756899691.8020937,-0.67431640625,-5286.0
1756899691.8043609,-0.67431640625,-5266.0
1756899691.8059833,-0.67431640625,-5263.0
1756899691.8118753,-0.67431640625,-5273.0
1756899691.8121235,-0.67431640625,-5284.0
1756899691.812374,-0.67431640625,-5278.0
1756899691.8134358,-0.67431640625,-5245.0
1756899691.8156128,-0.67431640625,-5197.0
1756899691.8173754,-0.67431640625,-5166.0
1756899691.8195822,-0.67431640625,-5167.0
1756899691.8231988,-0.67431640625,-5180.0
1756899691.8236544,-0.67431640625,-5163.0
1756899691.8285882,-0.67431640625,-5106.0
1756899691.829114,-0.67431640625,-5047.0
1756899691.8293269,-0.67431640625,-5031.0
1756899691.831136,-0.67431640625,-5060.0
1756899691.833423,-0.67431640625,-5089.0
1756899691.8351161,-0.67431640625,-5077.0
1756899691.8371599,-0.67431640625,-5030.0
1756899691.8391101,-0.67431640625,-4987.0
1756899691.8482437,-0.67431640625,-4973.0
1756899691.8485186,-0.67431640625,-4977.0
1756899691.8487287,-0.67431640625,-4965.0
1756899691.8489358,-0.67431640625,-4918.0
1756899691.8525178,-0.67431640625,-4847.0
1756899691.8539846,0.361572265625,-4847.0
1756899691.8614557,0.361572265625,-4775.0
1756899691.861887,0.361572265625,-4725.0
1756899691.8620937,0.361572265625,-4697.0
1756899691.862291,0.361572265625,-4681.0
1756899691.8625903,0.361572265625,-4660.0
1756899691.8627863,0.361572265625,-4628.0
1756899691.8630219,0.361572265625,-4597.0
1756899691.864537,0.361572265625,-4586.0
1756899691.866499,0.361572265625,-4595.0
1756899691.868467,0.361572265625,-4605.0
1756899691.8726158,0.361572265625,-4586.0
1756899691.8735673,0.361572265625,-4537.0
1756899691.8743432,0.361572265625,-4483.0
1756899691.876325,0.361572265625,-4455.0
1756899691.878916,0.361572265625,-4451.0
1756899691.8803656,0.361572265625,-4435.0
1756899691.8822093,0.361572265625,-4374.0
1756899691.8847077,0.361572265625,-4277.0
1756899691.886259,0.361572265625,-4193.0
1756899691.8910682,0.361572265625,-4154.0
1756899691.8912823,0.361572265625,-4151.0
1756899691.8920422,0.361572265625,-4142.0
1756899691.8984435,0.361572265625,-4097.0
1756899691.8986857,0.361572265625,-4029.0
1756899691.898907,0.361572265625,-3973.0
1756899691.899936,0.361572265625,-3946.0
1756899691.902081,0.361572265625,-3933.0
1756899691.9038591,0.361572265625,-3908.0
1756899691.9059956,0.361572265625,-3864.0
1756899691.9078476,0.361572265625,-3816.0
1756899691.9099035,0.361572265625,-3781.0
1756899691.9118674,0.361572265625,-3757.0
1756899691.91383,0.361572265625,-3731.0
1756899691.9158413,0.361572265625,-3702.0
1756899691.918163,0.361572265625,-3682.0
1756899691.9198968,0.361572265625,-3678.0
1756899691.92401,0.361572265625,-3674.0
1756899691.9243116,0.361572265625,-3643.0
1756899691.9254668,0.361572265625,-3575.0
1756899691.9261036,0.87255859375,-3575.0
1756899691.9277256,0.87255859375,-3498.0
1756899691.9297848,0.87255859375,-3445.0
1756899691.9313333,0.87255859375,-3422.0
1756899691.9333055,0.87255859375,-3403.0
1756899691.9352846,0.87255859375,-3365.0
1756899691.9372673,0.87255859375,-3317.0
1756899691.9463634,0.87255859375,-3281.0
1756899691.9466379,0.87255859375,-3260.0
1756899691.9469237,0.87255859375,-3238.0
1756899691.947145,0.87255859375,-3205.0
1756899691.9473443,0.87255859375,-3176.0
1756899691.9491265,0.87255859375,-3165.0
1756899691.9510772,0.87255859375,-3162.0
1756899691.9566617,0.87255859375,-3144.0
1756899691.95694,0.87255859375,-3106.0
1756899691.957139,0.87255859375,-3074.0
1756899691.9588678,0.87255859375,-3073.0
1756899691.960838,0.87255859375,-3094.0
1756899691.9628289,0.87255859375,-3100.0
1756899691.9673615,0.87255859375,-3067.0
1756899691.9681895,0.87255859375,-3005.0
1756899691.971862,0.87255859375,-2943.0
1756899691.9720914,0.87255859375,-2900.0
1756899691.9726343,0.87255859375,-2873.0
1756899691.9745872,0.87255859375,-2847.0
1756899691.9765491,0.87255859375,-2811.0
1756899691.9785216,0.87255859375,-2765.0
1756899691.9804869,0.87255859375,-2718.0
1756899691.9825327,0.87255859375,-2688.0
1756899691.9868271,0.87255859375,-2685.0
1756899691.9870696,0.87255859375,-2703.0
1756899691.9883943,0.87255859375,-2710.0
1756899691.990652,0.87255859375,-2684.0
1756899691.9923167,0.87255859375,-2633.0
1756899691.9942899,0.87255859375,-2590.0
1756899691.9951453,1.0390625,-2590.0
1756899691.996283,1.0390625,-2573.0
1756899691.9982076,1.0390625,-2560.0
1756899692.0001276,1.0390625,-2512.0
1756899692.0029206,1.0390625,-2431.0
1756899692.0041826,1.0390625,-2372.0
1756899692.0123434,1.0390625,-2387.0
1756899692.01265,1.0390625,-2454.0
1756899692.013183,1.0390625,-2491.0
1756899692.0133953,1.0390625,-2445.0
1756899692.0140276,1.0390625,-2357.0
1756899692.0158615,1.0390625,-2316.0
1756899692.0180092,1.0390625,-2351.0
1756899692.019864,1.0390625,-2398.0
1756899692.0219207,1.0390625,-2378.0
1756899692.0249026,1.0390625,-2294.0
1756899692.0258482,1.0390625,-2222.0
1756899692.0277984,1.0390625,-2212.0
1756899692.0295753,1.0390625,-2234.0
1756899692.0389106,1.0390625,-2230.0
1756899692.0391648,1.0390625,-2197.0
1756899692.0397165,1.0390625,-2183.0
1756899692.0399227,1.0390625,-2209.0
1756899692.0401301,1.0390625,-2235.0
1756899692.041407,1.0390625,-2210.0
1756899692.0459504,1.0390625,-2145.0
1756899692.0462246,1.0390625,-2102.0
1756899692.0473483,1.0390625,-2116.0
1756899692.049302,1.0390625,-2152.0
1756899692.0512562,1.0390625,-2153.0
1756899692.054786,1.0390625,-2108.0
1756899692.0551727,1.0390625,-2063.0
1756899692.0598006,1.0390625,-2056.0
1756899692.0602536,1.0390625,-2071.0
1756899692.0610647,1.0390625,-2074.0
1756899692.0630333,1.0390625,-2053.0
1756899692.0650036,1.0390625,-2033.0
1756899692.0662522,0.78125,-2033.0
1756899692.066969,0.78125,-2035.0
1756899692.0689092,0.78125,-2046.0
1756899692.0708816,0.78125,-2043.0
1756899692.0728517,0.78125,-2023.0
1756899692.077502,0.78125,-2004.0
1756899692.077926,0.78125,-1994.0
1756899692.0787659,0.78125,-1985.0
1756899692.0807269,0.78125,-1971.0
1756899692.08287,0.78125,-1965.0
1756899692.0887184,0.78125,-1976.0
1756899692.0889347,0.78125,-1997.0
1756899692.0891318,0.78125,-2003.0
1756899692.0905385,0.78125,-1990.0
1756899692.0925128,0.78125,-1982.0
1756899692.0944717,0.78125,-1995.0
1756899692.096419,0.78125,-2013.0
1756899692.0984461,0.78125,-2012.0
1756899692.100514,0.78125,-1984.0
1756899692.1023085,0.78125,-1952.0
1756899692.104271,0.78125,-1936.0
1756899692.108666,0.78125,-1929.0
1756899692.1089206,0.78125,-1909.0
1756899692.1102016,0.78125,-1877.0
1756899692.1126413,0.78125,-1853.0
1756899692.1141212,0.78125,-1849.0
1756899692.116082,0.78125,-1853.0
1756899692.118039,0.78125,-1842.0
1756899692.1200156,0.78125,-1811.0
1756899692.1219926,0.78125,-1776.0
1756899692.123929,0.78125,-1758.0
1756899692.127166,0.78125,-1764.0
1756899692.127818,0.78125,-1789.0
1756899692.1300015,0.78125,-1817.0
1756899692.1319828,0.78125,-1833.0
1756899692.1339571,0.78125,-1829.0
1756899692.136035,0.78125,-1818.0
1756899692.137384,0.254638671875,-1818.0
1756899692.1378798,0.254638671875,-1820.0
1756899692.1399333,0.254638671875,-1836.0
1756899692.147773,0.254638671875,-1850.0
1756899692.148048,0.254638671875,-1840.0
1756899692.1484187,0.254638671875,-1811.0
1756899692.1486368,0.254638671875,-1784.0
1756899692.1494908,0.254638671875,-1770.0
1756899692.1517212,0.254638671875,-1756.0
1756899692.153429,0.254638671875,-1725.0
1756899692.1584413,0.254638671875,-1686.0
1756899692.1586611,0.254638671875,-1664.0
1756899692.1593301,0.254638671875,-1668.0
1756899692.1612623,0.254638671875,-1680.0
1756899692.1641817,0.254638671875,-1674.0
1756899692.1651945,0.254638671875,-1648.0
1756899692.1672397,0.254638671875,-1630.0
1756899692.1691198,0.254638671875,-1643.0
1756899692.1710818,0.254638671875,-1675.0
1756899692.1763837,0.254638671875,-1702.0
1756899692.1766431,0.254638671875,-1708.0
1756899692.1793518,0.254638671875,-1704.0
1756899692.1833146,0.254638671875,-1705.0
1756899692.1839118,0.254638671875,-1708.0
1756899692.184278,0.254638671875,-1694.0
1756899692.1876757,0.254638671875,-1654.0
1756899692.1878982,0.254638671875,-1603.0
1756899692.1887803,0.254638671875,-1568.0
1756899692.190752,0.254638671875,-1550.0
1756899692.1927195,0.254638671875,-1531.0
1756899692.1947596,0.254638671875,-1493.0
1756899692.1983657,0.254638671875,-1444.0
1756899692.1986792,0.254638671875,-1411.0
1756899692.2008336,0.254638671875,-1413.0
1756899692.2025795,0.254638671875,-1446.0
1756899692.2045276,0.254638671875,-1481.0
1756899692.2062507,0.0489501953125,-1481.0
1756899692.206513,0.0489501953125,-1492.0
1756899692.2083876,0.0489501953125,-1470.0
1756899692.2113683,0.0489501953125,-1433.0
1756899692.2122436,0.0489501953125,-1413.0
1756899692.2143896,0.0489501953125,-1425.0
1756899692.216273,0.0489501953125,-1449.0
1756899692.218255,0.0489501953125,-1451.0
1756899692.2202191,0.0489501953125,-1422.0
1756899692.2220778,0.0489501953125,-1393.0
1756899692.2240229,0.0489501953125,-1402.0
1756899692.2260947,0.0489501953125,-1445.0
1756899692.2281678,0.0489501953125,-1482.0
1756899692.230226,0.0489501953125,-1478.0
1756899692.2321553,0.0489501953125,-1448.0
1756899692.2352605,0.0489501953125,-1432.0
1756899692.2361987,0.0489501953125,-1451.0
1756899692.2390428,0.0489501953125,-1481.0
1756899692.239986,0.0489501953125,-1488.0
1756899692.2427185,0.0489501953125,-1467.0
1756899692.2440314,0.0489501953125,-1443.0
1756899692.246074,0.0489501953125,-1439.0
1756899692.2491791,0.0489501953125,-1459.0
1756899692.2503233,0.0489501953125,-1487.0
1756899692.2593708,0.0489501953125,-1512.0
1756899692.2594812,0.0489501953125,-1527.0
1756899692.2595527,0.0489501953125,-1529.0
1756899692.2596235,0.0489501953125,-1521.0
1756899692.2597163,0.0489501953125,-1514.0
1756899692.2615304,0.0489501953125,-1519.0
1756899692.2634146,0.0489501953125,-1533.0
1756899692.266277,0.0489501953125,-1544.0
1756899692.2677267,0.0489501953125,-1538.0
1756899692.2694466,0.0489501953125,-1515.0
1756899692.2714,0.0489501953125,-1485.0
1756899692.273381,0.0489501953125,-1459.0
1756899692.274239,-0.10009765625,-1459.0
1756899692.2753873,-0.10009765625,-1439.0
1756899692.2775319,-0.10009765625,-1429.0
1756899692.279853,-0.10009765625,-1429.0
1756899692.2990227,-0.10009765625,-1430.0
1756899692.2998502,-0.10009765625,-1415.0
1756899692.2999134,-0.10009765625,-1374.0
1756899692.2999618,-0.10009765625,-1324.0
1756899692.3000093,-0.10009765625,-1292.0
1756899692.3000562,-0.10009765625,-1295.0
1756899692.3001044,-0.10009765625,-1316.0
1756899692.3001502,-0.10009765625,-1315.0
1756899692.3001978,-0.10009765625,-1273.0
1756899692.3002453,-0.10009765625,-1211.0
1756899692.301749,-0.10009765625,-1166.0
1756899692.302629,-0.10009765625,-1156.0
1756899692.3045802,-0.10009765625,-1165.0
1756899692.3065474,-0.10009765625,-1161.0
1756899692.3085978,-0.10009765625,-1129.0
1756899692.310475,-0.10009765625,-1076.0
1756899692.3137085,-0.10009765625,-1019.0
1756899692.3144734,-0.10009765625,-966.0
1756899692.3164952,-0.10009765625,-921.0
1756899692.3204226,-0.10009765625,-893.0
1756899692.3206108,-0.10009765625,-887.0
1756899692.32265,-0.10009765625,-894.0
1756899692.3244636,-0.10009765625,-897.0
1756899692.3271368,-0.10009765625,-891.0
1756899692.3284361,-0.10009765625,-896.0
1756899692.330309,-0.10009765625,-923.0
1756899692.3323357,-0.10009765625,-962.0
1756899692.334194,-0.10009765625,-976.0
1756899692.3361533,-0.10009765625,-950.0
1756899692.341664,-0.10009765625,-903.0
1756899692.3419383,-0.10009765625,-874.0
1756899692.3420632,-0.10009765625,-877.0
1756899692.3440185,-0.10009765625,-891.0
1756899692.345942,-0.10009765625,-892.0
1756899692.3461862,-0.12139892578125,-892.0
1756899692.3478906,-0.12139892578125,-883.0
1756899692.3501635,-0.12139892578125,-887.0
1756899692.3518054,-0.12139892578125,-912.0
1756899692.3537564,-0.12139892578125,-940.0
1756899692.356125,-0.12139892578125,-951.0
1756899692.357903,-0.12139892578125,-950.0
1756899692.3600085,-0.12139892578125,-955.0
1756899692.3618236,-0.12139892578125,-972.0
1756899692.3644426,-0.12139892578125,-983.0
1756899692.3657537,-0.12139892578125,-970.0
1756899692.3682656,-0.12139892578125,-940.0
1756899692.3696513,-0.12139892578125,-914.0
1756899692.371654,-0.12139892578125,-907.0
1756899692.3736107,-0.12139892578125,-915.0
1756899692.3755715,-0.12139892578125,-919.0
1756899692.3776221,-0.12139892578125,-908.0
1756899692.379497,-0.12139892578125,-882.0
1756899692.3820517,-0.12139892578125,-854.0
1756899692.3834205,-0.12139892578125,-839.0
1756899692.3855765,-0.12139892578125,-842.0
1756899692.3881197,-0.12139892578125,-854.0
1756899692.3900256,-0.12139892578125,-859.0
1756899692.3923979,-0.12139892578125,-850.0
1756899692.3932548,-0.12139892578125,-831.0
1756899692.3953066,-0.12139892578125,-816.0
1756899692.3972144,-0.12139892578125,-812.0
1756899692.3991425,-0.12139892578125,-812.0
1756899692.4018884,-0.12139892578125,-813.0
1756899692.4030526,-0.12139892578125,-823.0
1756899692.405247,-0.12139892578125,-861.0
1756899692.406974,-0.12139892578125,-932.0
1756899692.4089494,-0.12139892578125,-1029.0
1756899692.4108949,-0.12139892578125,-1143.0
1756899692.4129696,-0.12139892578125,-1278.0
1756899692.4141748,-0.1114501953125,-1278.0
1756899692.4148765,-0.1114501953125,-1449.0
1756899692.4169724,-0.1114501953125,-1662.0
1756899692.4187212,-0.1114501953125,-1895.0
1756899692.4207416,-0.1114501953125,-2104.0
1756899692.4226959,-0.1114501953125,-2251.0
1756899692.4246652,-0.1114501953125,-2326.0
1756899692.4266276,-0.1114501953125,-2340.0
1756899692.4285862,-0.1114501953125,-2313.0
1756899692.4305568,-0.1114501953125,-2250.0
1756899692.432532,-0.1114501953125,-2152.0
1756899692.4344866,-0.1114501953125,-2020.0
1756899692.4364583,-0.1114501953125,-1859.0
1756899692.43843,-0.1114501953125,-1682.0
1756899692.4403832,-0.1114501953125,-1508.0
1756899692.4423707,-0.1114501953125,-1364.0
1756899692.4443195,-0.1114501953125,-1271.0
1756899692.4463139,-0.1114501953125,-1225.0
1756899692.4485211,-0.1114501953125,-1200.0
1756899692.4501543,-0.1114501953125,-1166.0
1756899692.452298,-0.1114501953125,-1113.0
1756899692.4542253,-0.1114501953125,-1051.0
1756899692.4560714,-0.1114501953125,-998.0
1756899692.4580953,-0.1114501953125,-967.0
1756899692.4600556,-0.1114501953125,-956.0
1756899692.462631,-0.1114501953125,-953.0
1756899692.4662232,-0.1114501953125,-936.0
1756899692.4664643,-0.1114501953125,-891.0
1756899692.4680536,-0.1114501953125,-834.0
1756899692.473225,-0.1114501953125,-802.0
1756899692.4734704,-0.1114501953125,-809.0
1756899692.4739728,-0.1114501953125,-831.0
1756899692.47574,-0.1114501953125,-830.0
1756899692.4782963,-0.1114501953125,-795.0
1756899692.4797857,-0.1114501953125,-760.0
1756899692.4816673,-0.1114501953125,-752.0
1756899692.483671,-0.1114501953125,-759.0
1756899692.4855957,-0.1114501953125,-741.0
1756899692.4870884,-0.04083251953125,-741.0
1756899692.4875052,-0.04083251953125,-691.0
1756899692.4902194,-0.04083251953125,-643.0
1756899692.4914196,-0.04083251953125,-640.0
1756899692.4933712,-0.04083251953125,-675.0
1756899692.49541,-0.04083251953125,-712.0
1756899692.4973717,-0.04083251953125,-720.0
1756899692.4992673,-0.04083251953125,-707.0
1756899692.5012345,-0.04083251953125,-695.0
1756899692.5032759,-0.04083251953125,-698.0
1756899692.5052257,-0.04083251953125,-710.0
1756899692.507248,-0.04083251953125,-722.0
1756899692.5092165,-0.04083251953125,-730.0
1756899692.51117,-0.04083251953125,-729.0
1756899692.5132928,-0.04083251953125,-719.0
1756899692.5155332,-0.04083251953125,-704.0
1756899692.5172293,-0.04083251953125,-699.0
1756899692.5190918,-0.04083251953125,-715.0
1756899692.5219617,-0.04083251953125,-747.0
1756899692.522853,-0.04083251953125,-774.0
1756899692.5249312,-0.04083251953125,-778.0
1756899692.5312061,-0.04083251953125,-753.0
1756899692.5314963,-0.04083251953125,-716.0
1756899692.5316985,-0.04083251953125,-685.0
1756899692.5328064,-0.04083251953125,-675.0
1756899692.5348225,-0.04083251953125,-683.0
1756899692.5367246,-0.04083251953125,-697.0
1756899692.5398543,-0.04083251953125,-703.0
1756899692.5406065,-0.04083251953125,-699.0
1756899692.543845,-0.04083251953125,-691.0
1756899692.5446367,-0.04083251953125,-689.0
1756899692.5501444,-0.04083251953125,-697.0
1756899692.5503738,-0.04083251953125,-716.0
1756899692.5507128,-0.04083251953125,-738.0
1756899692.5526426,-0.04083251953125,-751.0
1756899692.5543456,-0.04083251953125,-748.0
1756899692.5546784,0.10211181640625,-748.0
1756899692.556298,0.10211181640625,-734.0
1756899692.5583615,0.10211181640625,-729.0
1756899692.5602827,0.10211181640625,-740.0
1756899692.5631356,0.10211181640625,-762.0
1756899692.5641866,0.10211181640625,-778.0
1756899692.5662525,0.10211181640625,-783.0
1756899692.5680792,0.10211181640625,-784.0
1756899692.5701487,0.10211181640625,-789.0
1756899692.5720582,0.10211181640625,-791.0
1756899692.574198,0.10211181640625,-783.0
1756899692.5760276,0.10211181640625,-773.0
1756899692.577931,0.10211181640625,-779.0
1756899692.5801961,0.10211181640625,-805.0
1756899692.5892208,0.10211181640625,-835.0
1756899692.5898209,0.10211181640625,-844.0
1756899692.590029,0.10211181640625,-836.0
1756899692.5902252,0.10211181640625,-836.0
1756899692.590422,0.10211181640625,-866.0
1756899692.591662,0.10211181640625,-916.0
1756899692.5947683,0.10211181640625,-951.0
1756899692.596568,0.10211181640625,-951.0
1756899692.597643,0.10211181640625,-927.0
1756899692.5996134,0.10211181640625,-914.0
1756899692.6015763,0.10211181640625,-937.0
1756899692.603502,0.10211181640625,-990.0
1756899692.6054232,0.10211181640625,-1045.0
1756899692.6073625,0.10211181640625,-1077.0
1756899692.6094706,0.10211181640625,-1085.0
1756899692.6113153,0.10211181640625,-1089.0
1756899692.6133235,0.10211181640625,-1108.0
1756899692.6152914,0.10211181640625,-1142.0
1756899692.6176443,0.10211181640625,-1165.0
1756899692.6217523,0.10211181640625,-1158.0
1756899692.6228414,0.10211181640625,-1123.0
1756899692.6231582,0.10211181640625,-1081.0
1756899692.6250987,0.10211181640625,-1052.0
1756899692.627069,0.10211181640625,-1041.0
1756899692.6291006,0.10211181640625,-1039.0
1756899692.6310542,0.10211181640625,-1036.0
1756899692.6331522,0.10211181640625,-1032.0
1756899692.6338189,0.098388671875,-1032.0
1756899692.635001,0.098388671875,-1030.0
1756899692.6370351,0.098388671875,-1030.0
1756899692.6388643,0.098388671875,-1037.0
1756899692.6408684,0.098388671875,-1052.0
1756899692.642853,0.098388671875,-1072.0
1756899692.644798,0.098388671875,-1089.0
1756899692.647452,0.098388671875,-1097.0
1756899692.6487951,0.098388671875,-1104.0
1756899692.651976,0.098388671875,-1127.0
1756899692.6526017,0.098388671875,-1166.0
1756899692.6546557,0.098388671875,-1199.0
1756899692.656659,0.098388671875,-1205.0
1756899692.6586232,0.098388671875,-1180.0
1756899692.6605234,0.098388671875,-1142.0
1756899692.662495,0.098388671875,-1104.0
1756899692.6645265,0.098388671875,-1065.0
1756899692.6684704,0.098388671875,-1017.0
1756899692.6687355,0.098388671875,-971.0
1756899692.6703057,0.098388671875,-944.0
1756899692.6724079,0.098388671875,-940.0
1756899692.674918,0.098388671875,-946.0
1756899692.6761959,0.098388671875,-953.0
1756899692.6800618,0.098388671875,-968.0
1756899692.6823113,0.098388671875,-1003.0
1756899692.6826613,0.098388671875,-1050.0
1756899692.6842973,0.098388671875,-1087.0
1756899692.686157,0.098388671875,-1099.0
1756899692.688132,0.098388671875,-1086.0
1756899692.690862,0.098388671875,-1061.0
1756899692.6920807,0.098388671875,-1040.0
1756899692.6940222,0.098388671875,-1036.0
1756899692.695933,0.098388671875,-1055.0
1756899692.6974313,0.039337158203125,-1055.0
1756899692.7006948,0.039337158203125,-1082.0
1756899692.7009213,0.039337158203125,-1087.0
1756899692.7017937,0.039337158203125,-1057.0
1756899692.7037868,0.039337158203125,-1021.0
1756899692.7059822,0.039337158203125,-1022.0
1756899692.7077043,0.039337158203125,-1065.0
1756899692.7096727,0.039337158203125,-1106.0
1756899692.7116032,0.039337158203125,-1102.0
1756899692.7136035,0.039337158203125,-1060.0
1756899692.7159235,0.039337158203125,-1026.0
1756899692.7175026,0.039337158203125,-1025.0
1756899692.7226193,0.039337158203125,-1033.0
1756899692.722869,0.039337158203125,-1017.0
1756899692.723486,0.039337158203125,-987.0
1756899692.725384,0.039337158203125,-983.0
1756899692.7272837,0.039337158203125,-1018.0
1756899692.7293086,0.039337158203125,-1053.0
1756899692.7312734,0.039337158203125,-1044.0
1756899692.734673,0.039337158203125,-998.0
1756899692.7374637,0.039337158203125,-972.0
1756899692.7377212,0.039337158203125,-1007.0
1756899692.7391658,0.039337158203125,-1073.0
1756899692.741116,0.039337158203125,-1109.0
1756899692.743117,0.039337158203125,-1089.0
1756899692.7478986,0.039337158203125,-1050.0
1756899692.7481232,0.039337158203125,-1049.0
1756899692.748857,0.039337158203125,-1087.0
1756899692.7512496,0.039337158203125,-1120.0
1756899692.7562895,0.039337158203125,-1112.0
1756899692.7565567,0.039337158203125,-1081.0
1756899692.7567558,0.039337158203125,-1067.0
1756899692.7587652,0.039337158203125,-1079.0
1756899692.7608001,0.039337158203125,-1081.0
1756899692.7628257,0.039337158203125,-1047.0
1756899692.7682943,0.039337158203125,-997.0
1756899692.7685692,0.039337158203125,-974.0
1756899692.769028,0.039337158203125,-989.0
1756899692.7706954,0.039337158203125,-1009.0
1756899692.772621,0.039337158203125,-996.0
1756899692.774422,0.039337158203125,-958.0
1756899692.7764218,0.039337158203125,-930.0
1756899692.7783952,0.039337158203125,-935.0
1756899692.7784936,0.046600341796875,-935.0
1756899692.7803624,0.046600341796875,-963.0
1756899692.7823064,0.046600341796875,-989.0
1756899692.7842822,0.046600341796875,-1003.0
1756899692.7862475,0.046600341796875,-1004.0
1756899692.7929215,0.046600341796875,-991.0
1756899692.7932034,0.046600341796875,-969.0
1756899692.793403,0.046600341796875,-955.0
1756899692.7940984,0.046600341796875,-967.0
1756899692.7961235,0.046600341796875,-999.0
1756899692.7980468,0.046600341796875,-1018.0
1756899692.7999954,0.046600341796875,-1002.0
1756899692.8023295,0.046600341796875,-962.0
1756899692.804003,0.046600341796875,-936.0
1756899692.8087378,0.046600341796875,-944.0
1756899692.832281,0.046600341796875,-968.0
1756899692.8345952,0.046600341796875,-974.0
1756899692.8348494,0.046600341796875,-951.0
1756899692.8350492,0.046600341796875,-923.0
1756899692.8352559,0.046600341796875,-913.0
1756899692.8354516,0.046600341796875,-922.0
1756899692.8356488,0.046600341796875,-920.0
1756899692.8358443,0.046600341796875,-890.0
1756899692.8360405,0.046600341796875,-845.0
1756899692.8362353,0.046600341796875,-818.0
1756899692.8364322,0.046600341796875,-829.0
1756899692.8371131,-0.0372314453125,-829.0
1756899692.8384109,-0.0372314453125,-860.0
1756899692.8404112,-0.0372314453125,-875.0
1756899692.8406165,-0.0372314453125,-858.0
1756899692.8408144,-0.0372314453125,-830.0
1756899692.8410103,-0.0372314453125,-829.0
1756899692.841206,-0.0372314453125,-861.0
1756899692.8414018,-0.0372314453125,-896.0
1756899692.844153,-0.0372314453125,-896.0
1756899692.8452046,-0.0372314453125,-869.0
1756899692.847155,-0.0372314453125,-853.0
1756899692.853404,-0.0372314453125,-879.0
1756899692.8536613,-0.0372314453125,-924.0
1756899692.853859,-0.0372314453125,-951.0
1756899692.8587165,-0.0372314453125,-947.0
1756899692.8641214,-0.0372314453125,-944.0
1756899692.8644056,-0.0372314453125,-967.0
1756899692.8646052,-0.0372314453125,-1001.0
1756899692.8648722,-0.0372314453125,-1005.0
1756899692.8687463,-0.0372314453125,-971.0
1756899692.8689508,-0.0372314453125,-934.0
1756899692.869147,-0.0372314453125,-933.0
1756899692.870741,-0.0372314453125,-959.0
1756899692.8726559,-0.0372314453125,-967.0
1756899692.8900301,-0.0372314453125,-932.0
1756899692.8902817,-0.0372314453125,-879.0
1756899692.8904803,-0.0372314453125,-847.0
1756899692.8906767,-0.0372314453125,-842.0
1756899692.8908734,-0.0372314453125,-837.0
1756899692.89107,-0.0372314453125,-818.0
1756899692.8912659,-0.0372314453125,-799.0
1756899692.891462,-0.0372314453125,-793.0
1756899692.891688,-0.0372314453125,-782.0
1756899692.8923187,-0.0372314453125,-738.0
1756899692.8943481,-0.0372314453125,-674.0
1756899692.8966296,-0.0372314453125,-643.0
1756899692.8983135,-0.0372314453125,-680.0
1756899692.9002836,-0.0372314453125,-752.0
1756899692.9022408,-0.0372314453125,-789.0
1756899692.9045997,-0.0372314453125,-764.0
1756899692.9061887,-0.0372314453125,-717.0
1756899692.9071352,-0.112060546875,-717.0
1756899692.9081573,-0.112060546875,-708.0
1756899692.910145,-0.112060546875,-750.0
1756899692.9119709,-0.112060546875,-795.0
1756899692.9140897,-0.112060546875,-793.0
1756899692.9225867,-0.112060546875,-741.0
1756899692.9228206,-0.112060546875,-677.0
1756899692.9230165,-0.112060546875,-639.0
1756899692.9232132,-0.112060546875,-639.0
1756899692.9250019,-0.112060546875,-668.0
1756899692.9258993,-0.112060546875,-711.0
1756899692.948008,-0.112060546875,-748.0
1756899692.948571,-0.112060546875,-765.0
1756899692.9499192,-0.112060546875,-754.0
1756899692.9501235,-0.112060546875,-727.0
1756899692.9503913,-0.112060546875,-703.0
1756899692.95059,-0.112060546875,-695.0
1756899692.9507964,-0.112060546875,-700.0
1756899692.9509935,-0.112060546875,-709.0
1756899692.9517155,-0.112060546875,-714.0
1756899692.9519176,-0.112060546875,-708.0
1756899692.9521146,-0.112060546875,-690.0
1756899692.9523122,-0.112060546875,-673.0
1756899692.9525082,-0.112060546875,-676.0
1756899692.9561427,-0.112060546875,-712.0
1756899692.95982,-0.112060546875,-760.0
1756899692.9600587,-0.112060546875,-780.0
1756899692.960258,-0.112060546875,-749.0
1756899692.9611025,-0.112060546875,-691.0
1756899692.9630806,-0.112060546875,-649.0
1756899692.9651084,-0.112060546875,-642.0
1756899692.9671657,-0.112060546875,-649.0
1756899692.9691205,-0.112060546875,-635.0
1756899692.9709318,-0.112060546875,-596.0
1756899692.9730613,-0.112060546875,-556.0
1756899692.9746819,-0.1741943359375,-556.0
1756899692.9749699,-0.1741943359375,-540.0
1756899692.977874,-0.1741943359375,-551.0
1756899692.978859,-0.1741943359375,-573.0
1756899692.9863183,-0.1741943359375,-587.0
1756899692.9868402,-0.1741943359375,-592.0
1756899692.989073,-0.1741943359375,-597.0
1756899692.99725,-0.1741943359375,-611.0
1756899692.9983654,-0.1741943359375,-631.0
1756899693.0004823,-0.1741943359375,-637.0
1756899693.0013516,-0.1741943359375,-617.0
1756899693.0024695,-0.1741943359375,-583.0
1756899693.0026712,-0.1741943359375,-565.0
1756899693.0028756,-0.1741943359375,-581.0
1756899693.0030742,-0.1741943359375,-611.0
1756899693.00327,-0.1741943359375,-608.0
1756899693.0043707,-0.1741943359375,-560.0
1756899693.006294,-0.1741943359375,-512.0
1756899693.019629,-0.1741943359375,-516.0
1756899693.01986,-0.1741943359375,-570.0
1756899693.0201328,-0.1741943359375,-615.0
1756899693.0205169,-0.1741943359375,-604.0
1756899693.0207202,-0.1741943359375,-556.0
1756899693.0209188,-0.1741943359375,-530.0
1756899693.0211165,-0.1741943359375,-551.0
1756899693.0227613,-0.1741943359375,-580.0
1756899693.0240686,-0.1741943359375,-567.0
1756899693.0259926,-0.1741943359375,-514.0
1756899693.0312276,-0.1741943359375,-471.0
1756899693.0319946,-0.1741943359375,-472.0
1756899693.0520759,-0.252685546875,-472.0
1756899693.0590694,-0.252685546875,-498.0
1756899693.0680964,-0.252685546875,-506.0
1756899693.0782304,-0.252685546875,-488.0
1756899693.0790641,-0.252685546875,-475.0
1756899693.080285,-0.252685546875,-488.0
1756899693.102361,-0.252685546875,-513.0
1756899693.1049485,-0.252685546875,-516.0
1756899693.1053839,-0.252685546875,-493.0
1756899693.1055856,-0.252685546875,-468.0
1756899693.105783,-0.252685546875,-471.0
1756899693.1059787,-0.252685546875,-505.0
1756899693.1061754,-0.252685546875,-545.0
1756899693.1063726,-0.252685546875,-568.0
1756899693.1065688,-0.252685546875,-572.0
1756899693.106764,-0.252685546875,-569.0
1756899693.1069598,-0.252685546875,-569.0
1756899693.1071582,-0.252685546875,-579.0
1756899693.1074092,-0.252685546875,-591.0
1756899693.107607,-0.252685546875,-594.0
1756899693.1078036,-0.252685546875,-582.0
1756899693.107999,-0.252685546875,-558.0
1756899693.1082225,-0.252685546875,-534.0
1756899693.1084301,-0.252685546875,-522.0
1756899693.1086278,-0.252685546875,-519.0
1756899693.1088235,-0.252685546875,-522.0
1756899693.1090205,-0.252685546875,-536.0
1756899693.1092172,-0.252685546875,-566.0
1756899693.1094134,-0.252685546875,-615.0
1756899693.1096098,-0.252685546875,-676.0
1756899693.1098068,-0.252685546875,-744.0
1756899693.1100047,-0.252685546875,-815.0
1756899693.110201,-0.252685546875,-885.0
1756899693.1104016,-0.252685546875,-945.0
1756899693.110597,-0.252685546875,-982.0
1756899693.1107926,-0.252685546875,-996.0
1756899693.1109886,-0.252685546875,-995.0
1756899693.1111841,-0.252685546875,-988.0
1756899693.11138,-0.252685546875,-978.0
1756899693.112232,-0.252685546875,-970.0
1756899693.1124308,-0.252685546875,-975.0
1756899693.1126258,-0.252685546875,-997.0
1756899693.112822,-0.252685546875,-1028.0
1756899693.1144288,-0.252685546875,-1055.0
1756899693.1164026,-0.252685546875,-1074.0
1756899693.1183429,-0.252685546875,-1099.0
1756899693.1203618,-0.252685546875,-1146.0
1756899693.1226661,-0.252685546875,-1213.0
1756899693.1227257,-0.288330078125,-1213.0
1756899693.124284,-0.288330078125,-1279.0
1756899693.1262982,-0.288330078125,-1329.0
1756899693.1285567,-0.288330078125,-1362.0
1756899693.1440265,-0.288330078125,-1389.0
1756899693.1442845,-0.288330078125,-1417.0
1756899693.1444821,-0.288330078125,-1449.0
1756899693.1446795,-0.288330078125,-1482.0
1756899693.1449025,-0.288330078125,-1520.0
1756899693.145101,-0.288330078125,-1568.0
1756899693.1452978,-0.288330078125,-1625.0
1756899693.145496,-0.288330078125,-1680.0
1756899693.1477761,-0.288330078125,-1726.0
1756899693.1479752,-0.288330078125,-1763.0
1756899693.1497588,-0.288330078125,-1805.0
1756899693.1518545,-0.288330078125,-1864.0
1756899693.1551437,-0.288330078125,-1931.0
1756899693.1561363,-0.288330078125,-1976.0
1756899693.15769,-0.288330078125,-1981.0
1756899693.1597016,-0.288330078125,-1957.0
1756899693.1618772,-0.288330078125,-1937.0
1756899693.165999,-0.288330078125,-1940.0
1756899693.166267,-0.288330078125,-1954.0
1756899693.167589,-0.288330078125,-1959.0
1756899693.1695244,-0.288330078125,-1959.0
1756899693.1724775,-0.288330078125,-1982.0
1756899693.176013,-0.288330078125,-2042.0
1756899693.176249,-0.288330078125,-2119.0
1756899693.177448,-0.288330078125,-2175.0
1756899693.1792681,-0.288330078125,-2205.0
1756899693.1821983,-0.288330078125,-2233.0
1756899693.1835132,-0.288330078125,-2271.0
1756899693.1852374,-0.288330078125,-2300.0
1756899693.1861968,-0.2359619140625,-2300.0
1756899693.187213,-0.2359619140625,-2290.0
1756899693.189233,-0.2359619140625,-2244.0
1756899693.1968098,-0.2359619140625,-2199.0
1756899693.197036,-0.2359619140625,-2175.0
1756899693.1972344,-0.2359619140625,-2161.0
1756899693.197431,-0.2359619140625,-2136.0
1756899693.200461,-0.2359619140625,-2118.0
1756899693.2009559,-0.2359619140625,-2140.0
1756899693.2029321,-0.2359619140625,-2204.0
1756899693.2049158,-0.2359619140625,-2259.0
1756899693.2069728,-0.2359619140625,-2259.0
1756899693.2088714,-0.2359619140625,-2220.0
1756899693.2107704,-0.2359619140625,-2201.0
1756899693.2127457,-0.2359619140625,-2230.0
1756899693.214672,-0.2359619140625,-2264.0
1756899693.217281,-0.2359619140625,-2237.0
1756899693.2186458,-0.2359619140625,-2138.0
1756899693.220649,-0.2359619140625,-2023.0
1756899693.2481105,-0.2359619140625,-1952.0
1756899693.2484004,-0.2359619140625,-1934.0
1756899693.248601,-0.2359619140625,-1940.0
1756899693.248798,-0.2359619140625,-1955.0
1756899693.2489955,-0.2359619140625,-1995.0
1756899693.2491941,-0.2359619140625,-2082.0
1756899693.2493925,-0.2359619140625,-2215.0
1756899693.2495894,-0.2359619140625,-2378.0
1756899693.249785,-0.2359619140625,-2567.0
1756899693.2499824,-0.2359619140625,-2795.0
1756899693.2501788,-0.2359619140625,-3060.0
1756899693.2503767,-0.2359619140625,-3323.0
1756899693.2505763,-0.2359619140625,-3522.0
1756899693.2507746,-0.2359619140625,-3612.0
1756899693.2509732,-0.2359619140625,-3608.0
1756899693.2536232,-0.2359619140625,-3552.0
1756899693.2541475,-0.2359619140625,-3479.0
1756899693.2546735,-0.08880615234375,-3479.0
1756899693.2573006,-0.08880615234375,-3381.0
1756899693.2579148,-0.08880615234375,-3226.0
1756899693.2648408,-0.08880615234375,-3006.0
1756899693.2651048,-0.08880615234375,-2755.0
1756899693.265301,-0.08880615234375,-2532.0
1756899693.2659252,-0.08880615234375,-2379.0
1756899693.2686975,-0.08880615234375,-2291.0
1756899693.2697108,-0.08880615234375,-2227.0
1756899693.273091,-0.08880615234375,-2153.0
1756899693.2736027,-0.08880615234375,-2066.0
1756899693.2756085,-0.08880615234375,-1988.0
1756899693.2776697,-0.08880615234375,-1932.0
1756899693.27959,-0.08880615234375,-1891.0
1756899693.2818189,-0.08880615234375,-1843.0
1756899693.2834713,-0.08880615234375,-1783.0
1756899693.2853842,-0.08880615234375,-1723.0
1756899693.2873325,-0.08880615234375,-1676.0
1756899693.289375,-0.08880615234375,-1630.0
1756899693.3135846,-0.08880615234375,-1570.0
1756899693.3141217,-0.08880615234375,-1499.0
1756899693.3208766,-0.08880615234375,-1447.0
1756899693.321511,-0.08880615234375,-1433.0
1756899693.3218813,-0.08880615234375,-1432.0
1756899693.322088,-0.08880615234375,-1403.0
1756899693.3224266,-0.08880615234375,-1334.0
1756899693.3236213,-0.08880615234375,-1262.0
1756899693.3249884,-0.08880615234375,-1230.0
1756899693.3258653,-0.0010042190551757812,-1230.0
1756899693.3304932,-0.0010042190551757812,-1238.0
1756899693.3308315,-0.0010042190551757812,-1247.0
1756899693.3313537,-0.0010042190551757812,-1225.0
1756899693.3315785,-0.0010042190551757812,-1181.0
1756899693.3317761,-0.0010042190551757812,-1145.0
1756899693.3319738,-0.0010042190551757812,-1124.0
1756899693.3321705,-0.0010042190551757812,-1101.0
1756899693.3323853,-0.0010042190551757812,-1059.0
1756899693.3325822,-0.0010042190551757812,-1003.0
1756899693.3327796,-0.0010042190551757812,-948.0
1756899693.3329759,-0.0010042190551757812,-903.0
1756899693.3331723,-0.0010042190551757812,-864.0
1756899693.3336477,-0.0010042190551757812,-832.0
1756899693.3358035,-0.0010042190551757812,-814.0
1756899693.3364525,-0.0010042190551757812,-807.0
1756899693.3384955,-0.0010042190551757812,-798.0
1756899693.3403895,-0.0010042190551757812,-782.0
1756899693.3423917,-0.0010042190551757812,-764.0
1756899693.345227,-0.0010042190551757812,-760.0
1756899693.3485312,-0.0010042190551757812,-774.0
1756899693.3487473,-0.0010042190551757812,-793.0
1756899693.350204,-0.0010042190551757812,-803.0
1756899693.352175,-0.0010042190551757812,-802.0
1756899693.354251,-0.0010042190551757812,-801.0
1756899693.3562038,-0.0010042190551757812,-805.0
1756899693.3624866,-0.0010042190551757812,-816.0
1756899693.3627143,-0.0010042190551757812,-837.0
1756899693.3629138,-0.0010042190551757812,-868.0
1756899693.3659465,-0.0010042190551757812,-899.0
1756899693.36623,-0.0010042190551757812,-909.0
1756899693.3679311,-0.0010042190551757812,-883.0
1756899693.369952,-0.0010042190551757812,-832.0
1756899693.373127,-0.0010042190551757812,-786.0
1756899693.3853362,-0.0010042190551757812,-767.0
1756899693.386395,-0.0010042190551757812,-766.0
1756899693.387434,-0.0010042190551757812,-757.0
1756899693.3876512,-0.0010042190551757812,-723.0
1756899693.3959317,0.048828125,-723.0
1756899693.4139917,0.048828125,-676.0
1756899693.4390028,0.048828125,-647.0
1756899693.439243,0.048828125,-653.0
1756899693.439686,0.048828125,-684.0
1756899693.4398847,0.048828125,-712.0
1756899693.4409468,0.048828125,-708.0
1756899693.442018,0.048828125,-675.0
1756899693.4423447,0.048828125,-639.0
1756899693.4425797,0.048828125,-629.0
1756899693.442777,0.048828125,-651.0
1756899693.4430194,0.048828125,-682.0
1756899693.4445677,0.048828125,-693.0
1756899693.445104,0.048828125,-673.0
1756899693.4454036,0.048828125,-635.0
1756899693.4465253,0.048828125,-610.0
1756899693.449237,0.048828125,-619.0
1756899693.449853,0.048828125,-654.0
1756899693.4500566,0.048828125,-684.0
1756899693.4502861,0.048828125,-680.0
1756899693.4504836,0.048828125,-643.0
1756899693.45069,0.048828125,-607.0
1756899693.4508874,0.048828125,-613.0
1756899693.4511442,0.048828125,-662.0
1756899693.4516883,0.048828125,-716.0
1756899693.4525692,0.048828125,-726.0
1756899693.452995,0.048828125,-685.0
1756899693.4533968,0.048828125,-632.0
1756899693.4537995,0.048828125,-615.0
1756899693.453999,0.048828125,-640.0
1756899693.4551558,0.048828125,-671.0
1756899693.4556723,0.048828125,-666.0
1756899693.4565911,0.048828125,-624.0
1756899693.4567971,0.048828125,-581.0
1756899693.4570034,0.048828125,-570.0
1756899693.4571998,0.048828125,-586.0
1756899693.457407,0.048828125,-602.0
1756899693.457849,0.048828125,-604.0
1756899693.4580493,0.048828125,-604.0
1756899693.4583087,0.048828125,-621.0
1756899693.458508,0.048828125,-650.0
1756899693.4606485,0.048828125,-665.0
1756899693.4622796,0.048828125,-654.0
1756899693.4667466,0.048828125,-632.0
1756899693.466762,0.0845947265625,-632.0
1756899693.4671407,0.0845947265625,-626.0
1756899693.4686677,0.0845947265625,-640.0
1756899693.4721532,0.0845947265625,-654.0
1756899693.472585,0.0845947265625,-651.0
1756899693.4744453,0.0845947265625,-636.0
1756899693.4761243,0.0845947265625,-632.0
1756899693.4787107,0.0845947265625,-646.0
1756899693.4845352,0.0845947265625,-668.0
1756899693.4847996,0.0845947265625,-690.0
1756899693.4850452,0.0845947265625,-711.0
1756899693.4860504,0.0845947265625,-736.0
1756899693.487799,0.0845947265625,-760.0
1756899693.4899108,0.0845947265625,-777.0
1756899693.491801,0.0845947265625,-785.0
1756899693.4940457,0.0845947265625,-785.0
1756899693.4974208,0.0845947265625,-774.0
1756899693.498031,0.0845947265625,-745.0
1756899693.4997737,0.0845947265625,-706.0
1756899693.5015302,0.0845947265625,-677.0
1756899693.5038452,0.0845947265625,-672.0
1756899693.510067,0.0845947265625,-685.0
1756899693.5140097,0.0845947265625,-692.0
1756899693.5144255,0.0845947265625,-689.0
1756899693.5157962,0.0845947265625,-695.0
1756899693.5160103,0.0845947265625,-725.0
1756899693.5162163,0.0845947265625,-767.0
1756899693.5210464,0.0845947265625,-793.0
1756899693.5212622,0.0845947265625,-791.0
1756899693.5214896,0.0845947265625,-774.0
1756899693.5231848,0.0845947265625,-759.0
1756899693.5264695,0.0845947265625,-747.0
1756899693.5271308,0.0845947265625,-728.0
1756899693.52905,0.0845947265625,-703.0
1756899693.5309997,0.0845947265625,-684.0
1756899693.534465,0.181884765625,-684.0
1756899693.5403059,0.181884765625,-678.0
1756899693.5411303,0.181884765625,-678.0
1756899693.5414095,0.181884765625,-678.0
1756899693.5419683,0.181884765625,-681.0
1756899693.5421712,0.181884765625,-689.0
1756899693.5428703,0.181884765625,-692.0
1756899693.5447755,0.181884765625,-674.0
1756899693.5469306,0.181884765625,-638.0
1756899693.548877,0.181884765625,-605.0
1756899693.550723,0.181884765625,-593.0
1756899693.552786,0.181884765625,-593.0
1756899693.5545747,0.181884765625,-580.0
1756899693.5570846,0.181884765625,-544.0
1756899693.558676,0.181884765625,-498.0
1756899693.5604618,0.181884765625,-467.0
1756899693.5625184,0.181884765625,-466.0
1756899693.564451,0.181884765625,-495.0
1756899693.5666187,0.181884765625,-530.0
1756899693.573602,0.181884765625,-543.0
1756899693.5739877,0.181884765625,-520.0
1756899693.5758972,0.181884765625,-481.0
1756899693.5790215,0.181884765625,-460.0
1756899693.580794,0.181884765625,-471.0
1756899693.5810313,0.181884765625,-489.0
1756899693.5812318,0.181884765625,-475.0
1756899693.5822518,0.181884765625,-426.0
1756899693.5843043,0.181884765625,-381.0
1756899693.5875366,0.181884765625,-371.0
1756899693.588778,0.181884765625,-382.0
1756899693.5902205,0.181884765625,-375.0
1756899693.5919359,0.181884765625,-338.0
1756899693.5941207,0.181884765625,-310.0
1756899693.5959282,0.181884765625,-328.0
1756899693.5980704,0.181884765625,-391.0
1756899693.6065576,0.351318359375,-391.0
1756899693.6100574,0.351318359375,-451.0
1756899693.610375,0.351318359375,-472.0
1756899693.610577,0.351318359375,-461.0
1756899693.6107755,0.351318359375,-464.0
1756899693.610973,0.351318359375,-512.0
1756899693.6111703,0.351318359375,-590.0
1756899693.6118681,0.351318359375,-652.0
1756899693.614298,0.351318359375,-652.0
1756899693.6158729,0.351318359375,-593.0
1756899693.6174912,0.351318359375,-520.0
1756899693.6194408,0.351318359375,-489.0
1756899693.6214564,0.351318359375,-513.0
1756899693.6236987,0.351318359375,-547.0
1756899693.6259513,0.351318359375,-542.0
1756899693.6273038,0.351318359375,-497.0
1756899693.6298902,0.351318359375,-455.0
1756899693.6312373,0.351318359375,-457.0
1756899693.633803,0.351318359375,-493.0
1756899693.635262,0.351318359375,-522.0
1756899693.6371675,0.351318359375,-524.0
1756899693.6410542,0.351318359375,-520.0
1756899693.6414459,0.351318359375,-537.0
1756899693.6436958,0.351318359375,-566.0
1756899693.645556,0.351318359375,-576.0
1756899693.6500106,0.351318359375,-555.0
1756899693.650298,0.351318359375,-534.0
1756899693.6509655,0.351318359375,-549.0
1756899693.6529427,0.351318359375,-594.0
1756899693.6549559,0.351318359375,-629.0
1756899693.6569242,0.351318359375,-625.0
1756899693.658811,0.351318359375,-598.0
1756899693.6608727,0.351318359375,-583.0
1756899693.6627593,0.351318359375,-594.0
1756899693.6647575,0.351318359375,-617.0
1756899693.6677318,0.351318359375,-633.0
1756899693.6691816,0.351318359375,-641.0
1756899693.6752012,0.295166015625,-641.0
1756899693.678817,0.295166015625,-648.0
1756899693.6857743,0.295166015625,-652.0
1756899693.6861024,0.295166015625,-645.0
1756899693.6863792,0.295166015625,-631.0
1756899693.6865804,0.295166015625,-623.0
1756899693.6867783,0.295166015625,-626.0
1756899693.6869755,0.295166015625,-632.0
1756899693.6871715,0.295166015625,-628.0
1756899693.6876063,0.295166015625,-618.0
1756899693.6882682,0.295166015625,-619.0
1756899693.6901968,0.295166015625,-637.0
1756899693.6921787,0.295166015625,-659.0
1756899693.69413,0.295166015625,-665.0
1756899693.6961565,0.295166015625,-658.0
1756899693.6980963,0.295166015625,-661.0
1756899693.7004528,0.295166015625,-692.0
1756899693.706163,0.295166015625,-735.0
1756899693.7067864,0.295166015625,-755.0
1756899693.7071311,0.295166015625,-734.0
1756899693.7220566,0.295166015625,-700.0
1756899693.7224736,0.295166015625,-692.0
1756899693.7226849,0.295166015625,-719.0
1756899693.722883,0.295166015625,-744.0
1756899693.723914,0.295166015625,-729.0
1756899693.724116,0.295166015625,-682.0
1756899693.7243114,0.295166015625,-647.0
1756899693.724514,0.295166015625,-648.0
1756899693.7247107,0.295166015625,-658.0
1756899693.7258863,0.295166015625,-641.0
1756899693.7278495,0.295166015625,-599.0
1756899693.7298303,0.295166015625,-574.0
1756899693.7318113,0.295166015625,-593.0
1756899693.7338517,0.295166015625,-637.0
1756899693.735914,0.295166015625,-665.0
1756899693.7469501,0.2939453125,-665.0
1756899693.7574239,0.2939453125,-667.0
1756899693.75769,0.2939453125,-673.0
1756899693.7580078,0.2939453125,-712.0
1756899693.758427,0.2939453125,-767.0
1756899693.7587461,0.2939453125,-801.0
1756899693.758949,0.2939453125,-795.0
1756899693.7591465,0.2939453125,-765.0
1756899693.759343,0.2939453125,-741.0
1756899693.7595391,0.2939453125,-731.0
1756899693.7597356,0.2939453125,-727.0
1756899693.7599313,0.2939453125,-730.0
1756899693.7625098,0.2939453125,-746.0
1756899693.7627206,0.2939453125,-777.0
1756899693.7629168,0.2939453125,-810.0
1756899693.7649682,0.2939453125,-828.0
1756899693.7668955,0.2939453125,-833.0
1756899693.768853,0.2939453125,-846.0
1756899693.7708225,0.2939453125,-881.0
1756899693.7746253,0.2939453125,-924.0
1756899693.7751424,0.2939453125,-942.0
1756899693.7779822,0.2939453125,-922.0
1756899693.7792752,0.2939453125,-883.0
1756899693.7806602,0.2939453125,-864.0
1756899693.7826319,0.2939453125,-879.0
1756899693.7845826,0.2939453125,-901.0
1756899693.8030777,0.2939453125,-895.0
1756899693.8031836,0.2939453125,-861.0
1756899693.803261,0.2939453125,-835.0
1756899693.803337,0.2939453125,-851.0
1756899693.8034112,0.2939453125,-896.0
1756899693.8055017,0.2939453125,-933.0
1756899693.8062918,0.2939453125,-936.0
1756899693.8069277,0.2939453125,-921.0
1756899693.8079398,0.2939453125,-915.0
1756899693.8083723,0.2939453125,-923.0
1756899693.8088331,0.2939453125,-932.0
1756899693.8091314,0.2939453125,-931.0
1756899693.8103042,0.2939453125,-923.0
1756899693.8122172,0.2939453125,-916.0
1756899693.814133,0.2939453125,-911.0
1756899693.8165965,0.2939453125,-908.0
1756899693.8179402,0.2705078125,-908.0
1756899693.8179832,0.2705078125,-912.0
1756899693.8229597,0.2705078125,-925.0
1756899693.8231964,0.2705078125,-947.0
1756899693.8238323,0.2705078125,-971.0
1756899693.8265731,0.2705078125,-997.0
1756899693.8280883,0.2705078125,-1029.0
1756899693.8299098,0.2705078125,-1061.0
1756899693.831802,0.2705078125,-1082.0
1756899693.8338203,0.2705078125,-1084.0
1756899693.8358154,0.2705078125,-1083.0
1756899693.839087,0.2705078125,-1100.0
1756899693.8397958,0.2705078125,-1132.0
1756899693.8417509,0.2705078125,-1151.0
1756899693.8437004,0.2705078125,-1137.0
1756899693.8454726,0.2705078125,-1102.0
1756899693.8642082,0.2705078125,-1083.0
1756899693.8645706,0.2705078125,-1101.0
1756899693.8647714,0.2705078125,-1139.0
1756899693.86501,0.2705078125,-1160.0
1756899693.8652706,0.2705078125,-1151.0
1756899693.865804,0.2705078125,-1136.0
1756899693.8667333,0.2705078125,-1148.0
1756899693.8670313,0.2705078125,-1185.0
1756899693.870813,0.2705078125,-1216.0
1756899693.8716767,0.2705078125,-1216.0
1756899693.875824,0.2705078125,-1203.0
1756899693.8761675,0.2705078125,-1214.0
1756899693.8764076,0.2705078125,-1268.0
1756899693.8766131,0.2705078125,-1335.0
1756899693.8790083,0.2705078125,-1369.0
1756899693.880661,0.2705078125,-1360.0
1756899693.8808823,0.2705078125,-1341.0
1756899693.8811295,0.2705078125,-1349.0
1756899693.8828971,0.2705078125,-1381.0
1756899693.8835182,0.0298004150390625,-1381.0
1756899693.8850043,0.0298004150390625,-1402.0
1756899693.886815,0.0298004150390625,-1391.0
1756899693.8928287,0.0298004150390625,-1364.0
1756899693.8930728,0.0298004150390625,-1348.0
1756899693.8932853,0.0298004150390625,-1348.0
1756899693.894578,0.0298004150390625,-1348.0
1756899693.8965487,0.0298004150390625,-1341.0
1756899693.8985002,0.0298004150390625,-1345.0
1756899693.9005148,0.0298004150390625,-1371.0
1756899693.9024267,0.0298004150390625,-1407.0
1756899693.9044092,0.0298004150390625,-1421.0
1756899693.9097583,0.0298004150390625,-1407.0
1756899693.910027,0.0298004150390625,-1386.0
1756899693.910314,0.0298004150390625,-1385.0
1756899693.9122856,0.0298004150390625,-1403.0
1756899693.9142234,0.0298004150390625,-1420.0
1756899693.9162145,0.0298004150390625,-1426.0
1756899693.9181817,0.0298004150390625,-1435.0
1756899693.9304185,0.0298004150390625,-1451.0
1756899693.9306998,0.0298004150390625,-1460.0
1756899693.9308984,0.0298004150390625,-1442.0
1756899693.9311042,0.0298004150390625,-1410.0
1756899693.9325132,0.0298004150390625,-1397.0
1756899693.932737,0.0298004150390625,-1420.0
1756899693.9330301,0.0298004150390625,-1449.0
1756899693.9340098,0.0298004150390625,-1449.0
1756899693.9359398,0.0298004150390625,-1416.0
1756899693.9518027,0.0298004150390625,-1386.0
1756899693.9521594,0.0298004150390625,-1386.0
1756899693.9524522,0.0298004150390625,-1404.0
1756899693.9527564,0.0298004150390625,-1415.0
1756899693.9530566,0.0298004150390625,-1416.0
1756899693.9533741,0.0298004150390625,-1426.0
1756899693.9538586,0.0298004150390625,-1452.0
1756899693.9541047,0.0298004150390625,-1467.0
1756899693.954343,0.0298004150390625,-1446.0
1756899693.9557781,0.0298004150390625,-1398.0
1756899693.9558995,-0.05877685546875,-1398.0
1756899693.9578235,-0.05877685546875,-1358.0
1756899693.9598582,-0.05877685546875,-1352.0
1756899693.9614515,-0.05877685546875,-1370.0
1756899693.963603,-0.05877685546875,-1389.0
1756899693.9664977,-0.05877685546875,-1391.0
1756899693.9672976,-0.05877685546875,-1379.0
1756899693.9695513,-0.05877685546875,-1364.0
1756899693.971244,-0.05877685546875,-1357.0
1756899693.97332,-0.05877685546875,-1366.0
1756899693.976802,-0.05877685546875,-1393.0
1756899693.9771838,-0.05877685546875,-1423.0
1756899693.98137,-0.05877685546875,-1430.0
1756899693.9821036,-0.05877685546875,-1404.0
1756899693.9831305,-0.05877685546875,-1364.0
1756899693.9850373,-0.05877685546875,-1346.0
1756899693.9870484,-0.05877685546875,-1363.0
1756899694.0055585,-0.05877685546875,-1391.0
1756899694.0059903,-0.05877685546875,-1393.0
1756899694.0062504,-0.05877685546875,-1361.0
1756899694.0089107,-0.05877685546875,-1320.0
1756899694.0130029,-0.05877685546875,-1301.0
1756899694.0132532,-0.05877685546875,-1308.0
1756899694.013455,-0.05877685546875,-1320.0
1756899694.0138252,-0.05877685546875,-1316.0
1756899694.0140262,-0.05877685546875,-1296.0
1756899694.022981,-0.05877685546875,-1282.0
1756899694.023604,-0.05877685546875,-1295.0
1756899694.023854,-0.05877685546875,-1335.0
1756899694.0240633,-0.05877685546875,-1378.0
1756899694.0243702,-0.05877685546875,-1402.0
1756899694.024577,-0.05877685546875,-1406.0
1756899694.0251813,-0.05877685546875,-1409.0
1756899694.0259693,-0.11175537109375,-1409.0
1756899694.0268788,-0.11175537109375,-1424.0
1756899694.027092,-0.11175537109375,-1441.0
1756899694.0276372,-0.11175537109375,-1445.0
1756899694.0278409,-0.11175537109375,-1440.0
1756899694.0282571,-0.11175537109375,-1453.0
1756899694.0301957,-0.11175537109375,-1500.0
1756899694.0321522,-0.11175537109375,-1554.0
1756899694.034153,-0.11175537109375,-1574.0
1756899694.0360885,-0.11175537109375,-1553.0
1756899694.0409274,-0.11175537109375,-1536.0
1756899694.0411582,-0.11175537109375,-1567.0
1756899694.0419934,-0.11175537109375,-1637.0
1756899694.0473125,-0.11175537109375,-1697.0
1756899694.0480118,-0.11175537109375,-1713.0
1756899694.0483308,-0.11175537109375,-1715.0
1756899694.0499349,-0.11175537109375,-1762.0
1756899694.051916,-0.11175537109375,-1886.0
1756899694.0539362,-0.11175537109375,-2063.0
1756899694.0557857,-0.11175537109375,-2250.0
1756899694.0580573,-0.11175537109375,-2430.0
1756899694.0688317,-0.11175537109375,-2626.0
1756899694.0704608,-0.11175537109375,-2871.0
1756899694.0733154,-0.11175537109375,-3155.0
1756899694.0738864,-0.11175537109375,-3430.0
1756899694.0742154,-0.11175537109375,-3644.0
1756899694.075774,-0.11175537109375,-3779.0
1756899694.0760176,-0.11175537109375,-3854.0
1756899694.0762196,-0.11175537109375,-3880.0
1756899694.0764248,-0.11175537109375,-3847.0
1756899694.0774326,-0.11175537109375,-3734.0
1756899694.0796614,-0.11175537109375,-3549.0
1756899694.0812638,-0.11175537109375,-3330.0
1756899694.0901582,-0.11175537109375,-3123.0
1756899694.0903986,-0.11175537109375,-2949.0
1756899694.0906122,-0.11175537109375,-2808.0
1756899694.0908108,-0.11175537109375,-2706.0
1756899694.0911057,-0.11175537109375,-2647.0
1756899694.091393,-0.121826171875,-2647.0
1756899694.093211,-0.121826171875,-2627.0
1756899694.0950663,-0.121826171875,-2629.0
1756899694.097093,-0.121826171875,-2643.0
1756899694.099085,-0.121826171875,-2668.0
1756899694.100951,-0.121826171875,-2696.0
1756899694.1029034,-0.121826171875,-2700.0
1756899694.105043,-0.121826171875,-2662.0
1756899694.107877,-0.121826171875,-2592.0
1756899694.1088383,-0.121826171875,-2522.0
1756899694.1108322,-0.121826171875,-2467.0
1756899694.1127512,-0.121826171875,-2419.0
1756899694.1147313,-0.121826171875,-2374.0
1756899694.116788,-0.121826171875,-2350.0
1756899694.1186395,-0.121826171875,-2365.0
1756899694.1206741,-0.121826171875,-2404.0
1756899694.1227634,-0.121826171875,-2429.0
1756899694.1247008,-0.121826171875,-2424.0
1756899694.1266596,-0.121826171875,-2413.0
1756899694.1286113,-0.121826171875,-2421.0
1756899694.1306212,-0.121826171875,-2432.0
1756899694.1325607,-0.121826171875,-2406.0
1756899694.1345367,-0.121826171875,-2340.0
1756899694.1365802,-0.121826171875,-2278.0
1756899694.1596076,-0.121826171875,-2267.0
1756899694.1599736,-0.121826171875,-2306.0
1756899694.1601846,-0.121826171875,-2347.0
1756899694.1603818,-0.121826171875,-2349.0
1756899694.16058,-0.121826171875,-2317.0
1756899694.1607873,-0.121826171875,-2285.0
1756899694.1612144,-0.121826171875,-2277.0
1756899694.1614995,-0.121826171875,-2287.0
1756899694.162135,-0.121826171875,-2290.0
1756899694.1623545,-0.121826171875,-2267.0
1756899694.1625514,-0.121826171875,-2216.0
1756899694.1627474,-0.121826171875,-2156.0
1756899694.1629446,-0.121826171875,-2109.0
1756899694.1638904,-0.121826171875,-2090.0
1756899694.1661208,-0.121826171875,-2100.0
1756899694.1670005,-0.19091796875,-2100.0
1756899694.1679335,-0.19091796875,-2127.0
1756899694.176956,-0.19091796875,-2156.0
1756899694.1788485,-0.19091796875,-2169.0
1756899694.179348,-0.19091796875,-2162.0
1756899694.1795554,-0.19091796875,-2148.0
1756899694.179753,-0.19091796875,-2153.0
1756899694.1799498,-0.19091796875,-2188.0
1756899694.1815379,-0.19091796875,-2228.0
1756899694.1835747,-0.19091796875,-2227.0
1756899694.1865273,-0.19091796875,-2175.0
1756899694.18741,-0.19091796875,-2115.0
1756899694.1894271,-0.19091796875,-2110.0
1756899694.1914597,-0.19091796875,-2170.0
1756899694.194114,-0.19091796875,-2236.0
1756899694.2004788,-0.19091796875,-2244.0
1756899694.2007868,-0.19091796875,-2190.0
1756899694.2014074,-0.19091796875,-2135.0
1756899694.2017205,-0.19091796875,-2123.0
1756899694.2052512,-0.19091796875,-2144.0
1756899694.2054834,-0.19091796875,-2145.0
1756899694.2070546,-0.19091796875,-2100.0
1756899694.210424,-0.19091796875,-2035.0
1756899694.2109976,-0.19091796875,-1998.0
1756899694.2129624,-0.19091796875,-2008.0
1756899694.2151315,-0.19091796875,-2047.0
1756899694.2174,-0.19091796875,-2081.0
1756899694.2225566,-0.19091796875,-2092.0
1756899694.222775,-0.19091796875,-2089.0
1756899694.2229736,-0.19091796875,-2095.0
1756899694.224732,-0.19091796875,-2121.0
1756899694.226764,-0.19091796875,-2159.0
1756899694.2298167,-0.19091796875,-2186.0
1756899694.2305977,-0.19091796875,-2186.0
1756899694.2326658,-0.19091796875,-2170.0
1756899694.2345767,-0.19091796875,-2157.0
1756899694.2365315,-0.19091796875,-2154.0
1756899694.2378883,-0.134033203125,-2154.0
1756899694.2385488,-0.134033203125,-2154.0
1756899694.2405121,-0.134033203125,-2144.0
1756899694.2440288,-0.134033203125,-2129.0
1756899694.244372,-0.134033203125,-2121.0
1756899694.2464223,-0.134033203125,-2115.0
1756899694.2483263,-0.134033203125,-2096.0
1756899694.2503414,-0.134033203125,-2060.0
1756899694.2522984,-0.134033203125,-2017.0
1756899694.2542744,-0.134033203125,-1977.0
1756899694.259957,-0.134033203125,-1936.0
1756899694.260184,-0.134033203125,-1894.0
1756899694.2603824,-0.134033203125,-1865.0
1756899694.262202,-0.134033203125,-1858.0
1756899694.2641878,-0.134033203125,-1865.0
1756899694.2661564,-0.134033203125,-1869.0
1756899694.267972,-0.134033203125,-1867.0
1756899694.27,-0.134033203125,-1878.0
1756899694.2738388,-0.134033203125,-1905.0
1756899694.2740395,-0.134033203125,-1920.0
1756899694.278914,-0.134033203125,-1896.0
1756899694.2791631,-0.134033203125,-1850.0
1756899694.2798216,-0.134033203125,-1827.0
1756899694.2829614,-0.134033203125,-1838.0
1756899694.2837024,-0.134033203125,-1847.0
1756899694.2860377,-0.134033203125,-1818.0
1756899694.2883856,-0.134033203125,-1767.0
1756899694.2895713,-0.134033203125,-1745.0
1756899694.2916806,-0.134033203125,-1769.0
1756899694.293563,-0.134033203125,-1801.0
1756899694.2955673,-0.134033203125,-1803.0
1756899694.297497,-0.134033203125,-1783.0
1756899694.2994885,-0.134033203125,-1781.0
1756899694.3031085,-0.134033203125,-1805.0
1756899694.3033206,-0.134033203125,-1818.0
1756899694.3053653,-0.134033203125,-1795.0
1756899694.307274,-0.134033203125,-1758.0
1756899694.3110588,-0.134033203125,-1754.0
1756899694.311313,-0.134033203125,-1788.0
1756899694.3113353,-0.24951171875,-1788.0
1756899694.313373,-0.24951171875,-1813.0
1756899694.3153496,-0.24951171875,-1785.0
1756899694.3171217,-0.24951171875,-1716.0
1756899694.3209279,-0.24951171875,-1668.0
1756899694.3211327,-0.24951171875,-1682.0
1756899694.3230507,-0.24951171875,-1734.0
1756899694.3251264,-0.24951171875,-1763.0
1756899694.3269672,-0.24951171875,-1738.0
1756899694.3289924,-0.24951171875,-1685.0
1756899694.3309636,-0.24951171875,-1657.0
1756899694.33295,-0.24951171875,-1670.0
1756899694.3349206,-0.24951171875,-1698.0
1756899694.3368356,-0.24951171875,-1706.0
1756899694.338783,-0.24951171875,-1689.0
1756899694.3407855,-0.24951171875,-1666.0
1756899694.3432443,-0.24951171875,-1652.0
1756899694.35692,-0.24951171875,-1641.0
1756899694.3572145,-0.24951171875,-1624.0
1756899694.3576066,-0.24951171875,-1600.0
1756899694.3622742,-0.24951171875,-1576.0
1756899694.3625307,-0.24951171875,-1556.0
1756899694.3627288,-0.24951171875,-1545.0
1756899694.3629246,-0.24951171875,-1554.0
1756899694.3631217,-0.24951171875,-1586.0
1756899694.3633163,-0.24951171875,-1619.0
1756899694.363511,-0.24951171875,-1619.0
1756899694.364263,-0.24951171875,-1581.0
1756899694.366358,-0.24951171875,-1542.0
1756899694.3683374,-0.24951171875,-1540.0
1756899694.3703518,-0.24951171875,-1565.0
1756899694.3722677,-0.24951171875,-1565.0
1756899694.37579,-0.3427734375,-1565.0
1756899694.3775334,-0.3427734375,-1509.0
1756899694.37776,-0.3427734375,-1424.0
1756899694.378254,-0.3427734375,-1369.0
1756899694.3811724,-0.3427734375,-1368.0
1756899694.3821151,-0.3427734375,-1398.0
1756899694.384152,-0.3427734375,-1412.0
1756899694.3859692,-0.3427734375,-1388.0
1756899694.3956513,-0.3427734375,-1343.0
1756899694.395928,-0.3427734375,-1310.0
1756899694.3961265,-0.3427734375,-1304.0
1756899694.3963242,-0.3427734375,-1316.0
1756899694.3965223,-0.3427734375,-1324.0
1756899694.3976655,-0.3427734375,-1312.0
1756899694.3997636,-0.3427734375,-1290.0
1756899694.4049735,-0.3427734375,-1277.0
1756899694.405201,-0.3427734375,-1282.0
1756899694.4055767,-0.3427734375,-1297.0
1756899694.4075994,-0.3427734375,-1307.0
1756899694.4094708,-0.3427734375,-1306.0
1756899694.4146426,-0.3427734375,-1302.0
1756899694.4149227,-0.3427734375,-1306.0
1756899694.4158888,-0.3427734375,-1314.0
1756899694.4184456,-0.3427734375,-1319.0
1756899694.4193156,-0.3427734375,-1317.0
1756899694.4212592,-0.3427734375,-1313.0
1756899694.4263227,-0.3427734375,-1309.0
1756899694.4270022,-0.3427734375,-1307.0
1756899694.4272294,-0.3427734375,-1307.0
1756899694.4291945,-0.3427734375,-1304.0
1756899694.43115,-0.3427734375,-1301.0
1756899694.4331071,-0.3427734375,-1301.0
1756899694.4351275,-0.3427734375,-1311.0
1756899694.4370427,-0.3427734375,-1328.0
1756899694.4467518,-0.4599609375,-1328.0
1756899694.449573,-0.4599609375,-1342.0
1756899694.4505925,-0.4599609375,-1343.0
1756899694.4529774,-0.4599609375,-1333.0
1756899694.4531834,-0.4599609375,-1330.0
1756899694.4533787,-0.4599609375,-1343.0
1756899694.453575,-0.4599609375,-1366.0
1756899694.4537709,-0.4599609375,-1381.0
1756899694.4551446,-0.4599609375,-1379.0
1756899694.4563406,-0.4599609375,-1362.0
1756899694.4566667,-0.4599609375,-1339.0
1756899694.4635098,-0.4599609375,-1319.0
1756899694.4637387,-0.4599609375,-1307.0
1756899694.4639356,-0.4599609375,-1306.0
1756899694.4645596,-0.4599609375,-1308.0
1756899694.4665012,-0.4599609375,-1301.0
1756899694.46843,-0.4599609375,-1278.0
1756899694.4704404,-0.4599609375,-1248.0
1756899694.473049,-0.4599609375,-1230.0
1756899694.4743104,-0.4599609375,-1233.0
1756899694.4817708,-0.4599609375,-1248.0
1756899694.4820995,-0.4599609375,-1260.0
1756899694.4829805,-0.4599609375,-1262.0
1756899694.4853685,-0.4599609375,-1264.0
1756899694.4967918,-0.4599609375,-1276.0
1756899694.503479,-0.4599609375,-1301.0
1756899694.503731,-0.4599609375,-1330.0
1756899694.503929,-0.4599609375,-1356.0
1756899694.5041294,-0.4599609375,-1372.0
1756899694.5043266,-0.4599609375,-1378.0
1756899694.5045223,-0.4599609375,-1377.0
1756899694.504719,-0.4599609375,-1370.0
1756899694.5049436,-0.4599609375,-1356.0
1756899694.505142,-0.4599609375,-1337.0
1756899694.5053394,-0.4599609375,-1325.0
1756899694.5058181,-0.4599609375,-1337.0
1756899694.508004,-0.4599609375,-1369.0
1756899694.5097888,-0.4599609375,-1404.0
1756899694.5117395,-0.4599609375,-1424.0
1756899694.5136826,-0.4599609375,-1432.0
1756899694.514226,-0.52880859375,-1432.0
1756899694.5167043,-0.52880859375,-1438.0
1756899694.5202665,-0.52880859375,-1447.0
1756899694.5205464,-0.52880859375,-1442.0
1756899694.5216236,-0.52880859375,-1417.0
1756899694.5234852,-0.52880859375,-1383.0
1756899694.5255816,-0.52880859375,-1362.0
1756899694.5294676,-0.52880859375,-1349.0
1756899694.5296843,-0.52880859375,-1324.0
1756899694.5313163,-0.52880859375,-1288.0
1756899694.5333207,-0.52880859375,-1277.0
1756899694.5353694,-0.52880859375,-1326.0
1756899694.5371952,-0.52880859375,-1417.0
1756899694.539242,-0.52880859375,-1490.0
1756899694.541126,-0.52880859375,-1508.0
1756899694.5431576,-0.52880859375,-1502.0
1756899694.545105,-0.52880859375,-1529.0
1756899694.54708,-0.52880859375,-1598.0
1756899694.5490525,-0.52880859375,-1655.0
1756899694.5550158,-0.52880859375,-1645.0
1756899694.5553257,-0.52880859375,-1586.0
1756899694.5555792,-0.52880859375,-1544.0
1756899694.558669,-0.52880859375,-1555.0
1756899694.5588846,-0.52880859375,-1585.0
1756899694.5609014,-0.52880859375,-1573.0
1756899694.5629323,-0.52880859375,-1512.0
1756899694.5651646,-0.52880859375,-1452.0
1756899694.5668814,-0.52880859375,-1449.0
1756899694.5687108,-0.52880859375,-1496.0
1756899694.5708525,-0.52880859375,-1539.0
1756899694.572781,-0.52880859375,-1541.0
1756899694.5747428,-0.52880859375,-1519.0
1756899694.579337,-0.52880859375,-1516.0
1756899694.5795941,-0.52880859375,-1545.0
1756899694.5804787,-0.52880859375,-1577.0
1756899694.5859373,-0.420654296875,-1577.0
1756899694.5923202,-0.420654296875,-1573.0
1756899694.592588,-0.420654296875,-1536.0
1756899694.5929196,-0.420654296875,-1501.0
1756899694.5931437,-0.420654296875,-1496.0
1756899694.5933912,-0.420654296875,-1504.0
1756899694.5936592,-0.420654296875,-1490.0
1756899694.5948877,-0.420654296875,-1444.0
1756899694.596159,-0.420654296875,-1399.0
1756899694.5981135,-0.420654296875,-1391.0
1756899694.6000965,-0.420654296875,-1417.0
1756899694.6021512,-0.420654296875,-1436.0
1756899694.6040258,-0.420654296875,-1418.0
1756899694.6061213,-0.420654296875,-1380.0
1756899694.607961,-0.420654296875,-1364.0
1756899694.6099772,-0.420654296875,-1389.0
1756899694.6119986,-0.420654296875,-1428.0
1756899694.6140513,-0.420654296875,-1446.0
1756899694.6177986,-0.420654296875,-1435.0
1756899694.6180103,-0.420654296875,-1421.0
1756899694.6205945,-0.420654296875,-1426.0
1756899694.6230755,-0.420654296875,-1440.0
1756899694.6237173,-0.420654296875,-1440.0
1756899694.6275818,-0.420654296875,-1420.0
1756899694.6303067,-0.420654296875,-1399.0
1756899694.632592,-0.420654296875,-1395.0
1756899694.633129,-0.420654296875,-1406.0
1756899694.6365428,-0.420654296875,-1410.0
1756899694.6368017,-0.420654296875,-1399.0
1756899694.637444,-0.420654296875,-1386.0
1756899694.6395338,-0.420654296875,-1387.0
1756899694.641657,-0.420654296875,-1402.0
1756899694.646457,-0.420654296875,-1418.0
1756899694.6466918,-0.420654296875,-1427.0
1756899694.6472182,-0.420654296875,-1429.0
1756899694.6492617,-0.420654296875,-1429.0
1756899694.6526341,-0.420654296875,-1430.0
1756899694.6547422,-0.58056640625,-1430.0
1756899694.6548433,-0.58056640625,-1435.0
1756899694.6551092,-0.58056640625,-1446.0
1756899694.6571326,-0.58056640625,-1465.0
1756899694.659243,-0.58056640625,-1484.0
1756899694.661297,-0.58056640625,-1499.0
1756899694.663473,-0.58056640625,-1514.0
1756899694.6650996,-0.58056640625,-1532.0
1756899694.6671188,-0.58056640625,-1553.0
1756899694.6690023,-0.58056640625,-1565.0
1756899694.671026,-0.58056640625,-1564.0
1756899694.6730533,-0.58056640625,-1558.0
1756899694.6779895,-0.58056640625,-1556.0
1756899694.6782267,-0.58056640625,-1557.0
1756899694.678924,-0.58056640625,-1551.0
1756899694.680785,-0.58056640625,-1533.0
1756899694.6848435,-0.58056640625,-1510.0
1756899694.6905992,-0.58056640625,-1489.0
1756899694.6909852,-0.58056640625,-1475.0
1756899694.6911905,-0.58056640625,-1467.0
1756899694.6913867,-0.58056640625,-1464.0
1756899694.6924655,-0.58056640625,-1460.0
1756899694.694435,-0.58056640625,-1443.0
1756899694.6966445,-0.58056640625,-1412.0
1756899694.700066,-0.58056640625,-1385.0
1756899694.7005,-0.58056640625,-1386.0
1756899694.7023807,-0.58056640625,-1412.0
1756899694.704474,-0.58056640625,-1429.0
1756899694.7064922,-0.58056640625,-1411.0
1756899694.7084274,-0.58056640625,-1372.0
1756899694.7103496,-0.58056640625,-1355.0
1756899694.7122583,-0.58056640625,-1380.0
1756899694.714698,-0.58056640625,-1416.0
1756899694.7162187,-0.58056640625,-1417.0
1756899694.7224114,-0.58056640625,-1375.0
1756899694.7226517,-0.58056640625,-1330.0
1756899694.7228506,-0.58056640625,-1321.0
1756899694.723908,-0.58056640625,-1340.0
1756899694.7259877,-0.58056640625,-1348.0
1756899694.7262325,-0.70556640625,-1348.0
1756899694.7279441,-0.70556640625,-1327.0
1756899694.7299705,-0.70556640625,-1301.0
1756899694.7375908,-0.70556640625,-1304.0
1756899694.7387884,-0.70556640625,-1336.0
1756899694.7390084,-0.70556640625,-1369.0
1756899694.7392068,-0.70556640625,-1383.0
1756899694.7398286,-0.70556640625,-1391.0
1756899694.7417936,-0.70556640625,-1420.0
1756899694.7439172,-0.70556640625,-1474.0
1756899694.7456894,-0.70556640625,-1531.0
1756899694.75492,-0.70556640625,-1558.0
1756899694.7561421,-0.70556640625,-1553.0
1756899694.7563531,-0.70556640625,-1535.0
1756899694.7565482,-0.70556640625,-1531.0
1756899694.756748,-0.70556640625,-1547.0
1756899694.7575197,-0.70556640625,-1569.0
1756899694.7595048,-0.70556640625,-1575.0
1756899694.7613301,-0.70556640625,-1552.0
1756899694.7634742,-0.70556640625,-1510.0
1756899694.7704678,-0.70556640625,-1478.0
1756899694.7759216,-0.70556640625,-1480.0
1756899694.77617,-0.70556640625,-1510.0
1756899694.776367,-0.70556640625,-1535.0
1756899694.7765636,-0.70556640625,-1528.0
1756899694.7767606,-0.70556640625,-1501.0
1756899694.7772393,-0.70556640625,-1496.0
1756899694.7789805,-0.70556640625,-1532.0
1756899694.7808728,-0.70556640625,-1583.0
1756899694.7891312,-0.70556640625,-1603.0
1756899694.7895136,-0.70556640625,-1587.0
1756899694.7897153,-0.70556640625,-1571.0
1756899694.7899122,-0.70556640625,-1592.0
1756899694.7924325,-0.70556640625,-1634.0
1756899694.7926722,-0.70556640625,-1649.0
1756899694.7939935,-0.7392578125,-1649.0
1756899694.794708,-0.7392578125,-1615.0
1756899694.7966743,-0.7392578125,-1567.0
1756899694.7986584,-0.7392578125,-1553.0
1756899694.8006063,-0.7392578125,-1576.0
1756899694.8025846,-0.7392578125,-1596.0
1756899694.8045378,-0.7392578125,-1584.0
1756899694.8065033,-0.7392578125,-1554.0
1756899694.8096232,-0.7392578125,-1539.0
1756899694.8105366,-0.7392578125,-1546.0
1756899694.8125606,-0.7392578125,-1554.0
1756899694.8227096,-0.7392578125,-1544.0
1756899694.8238904,-0.7392578125,-1529.0
1756899694.8240998,-0.7392578125,-1519.0
1756899694.8242967,-0.7392578125,-1507.0
1756899694.8244936,-0.7392578125,-1477.0
1756899694.8246899,-0.7392578125,-1443.0
1756899694.8261864,-0.7392578125,-1441.0
1756899694.8282576,-0.7392578125,-1475.0
1756899694.830168,-0.7392578125,-1500.0
1756899694.8322234,-0.7392578125,-1472.0
1756899694.8345187,-0.7392578125,-1406.0
1756899694.8402088,-0.7392578125,-1363.0
1756899694.8411694,-0.7392578125,-1378.0
1756899694.8413894,-0.7392578125,-1410.0
1756899694.8419967,-0.7392578125,-1400.0
1756899694.8438842,-0.7392578125,-1340.0
1756899694.8458364,-0.7392578125,-1284.0
1756899694.8477082,-0.7392578125,-1279.0
1756899694.86154,-0.7392578125,-1312.0
1756899694.8627186,-0.7392578125,-1340.0
1756899694.862925,-0.7392578125,-1342.0
1756899694.863122,-0.7392578125,-1328.0
1756899694.8633256,-0.7392578125,-1310.0
1756899694.8635223,-0.7392578125,-1282.0
1756899694.8637195,-0.7392578125,-1246.0
1756899694.8639166,-0.7392578125,-1222.0
1756899694.8654566,-0.7392578125,-1224.0
1756899694.8657594,-0.72998046875,-1224.0
1756899694.8710968,-0.72998046875,-1233.0
1756899694.8800166,-0.72998046875,-1220.0
1756899694.8802452,-0.72998046875,-1194.0
1756899694.8804443,-0.72998046875,-1203.0
1756899694.8806405,-0.72998046875,-1288.0
1756899694.8811548,-0.72998046875,-1431.0
1756899694.8814003,-0.72998046875,-1580.0
1756899694.8816247,-0.72998046875,-1713.0
1756899694.8876233,-0.72998046875,-1861.0
1756899694.8880086,-0.72998046875,-2066.0
1756899694.8887253,-0.72998046875,-2328.0
1756899694.8904276,-0.72998046875,-2599.0
