0,1,2
1756899689.193725,0.1156299247352563,-0.8843208261499601
1756899689.195658,0.1156299247352563,-0.8824621523422014
1756899689.1977468,0.1156299247352563,-0.8685220987840111
1756899689.1998596,0.1156299247352563,-0.8425006654753893
1756899689.201764,0.1156299247352563,-0.8136912214551293
1756899689.2037137,0.1156299247352563,-0.7960338202814216
1756899689.206175,0.1156299247352563,-0.7941751464736629
1756899689.208393,0.1156299247352563,-0.7951044833775422
1756899689.2103956,0.1156299247352563,-0.7820937667232313
1756899689.212091,0.1156299247352563,-0.7700123869727997
1756899689.213555,0.1156299247352563,-0.7895284619542662
1756899689.215515,0.1156299247352563,-0.8564407190335795
1756899689.2175326,0.1156299247352563,-0.9428690510943594
1756899689.2194872,0.1156299247352563,-1.0023466129426377
1756899689.2214222,0.1156299247352563,-1.0200040141163456
1756899689.2234097,0.1156299247352563,-1.026509372443501
1756899689.2253814,0.1156299247352563,-1.058106827175399
1756899689.2273417,0.1156299247352563,-1.1138670414081602
1756899689.2292771,0.1156299247352563,-1.1575458758904897
1756899689.2312603,0.1156299247352563,-1.1612632235060072
1756899689.2331998,0.1156299247352563,-1.1398884747167821
1756899689.2351336,0.1156299247352563,-1.1305951056779886
1756899689.23718,0.1156299247352563,-1.1501111806594548
1756899689.239095,0.1156299247352563,-1.1844966461029909
1756899689.2410944,0.1156299247352563,-1.2151647639310097
1756899689.2431,0.1156299247352563,-1.2402568603357522
1756899689.244989,0.1156299247352563,-1.2765009995870469
1756899689.2470012,0.1156299247352563,-1.3276145293004114
1756899689.2489295,0.1156299247352563,-1.3815160697254139
1756899689.2508848,0.1156299247352563,-1.4233362303999846
1756899689.2530496,0.1156299247352563,-1.450287000612486
1756899689.2548926,0.1156299247352563,-1.4698030755939522
1756899689.256775,0.1156299247352563,-1.493036498190936
1756899689.258782,0.1156299247352563,-1.5181285945956786
1756899689.2607512,0.1156299247352563,-1.5357859957693862
1756899689.2628796,0.1156299247352563,-1.5441500279043006
1756899689.264689,0.1156299247352563,-1.5469380386159386
1756899689.266648,0.1156299247352563,-1.5497260493275766
1756899689.2685957,0.1156299247352563,-1.553443396943094
1756899689.2705784,0.1156299247352563,-1.5608780921741288
1756899689.2725108,0.1156299247352563,-1.5803941671555952
1756899689.2744744,0.1156299247352563,-1.6222143278301662
1756899689.2764676,0.1156299247352563,-1.6714691837357718
1756899689.2784045,0.1156299247352563,-1.7002786277560318
1756899689.2803798,0.1156299247352563,-1.6863385741978414
1756899689.2823272,0.1156299247352563,-1.6454477504271499
1756899689.284307,0.1156299247352563,-1.6194263171185281
1756899689.286243,0.1156299247352563,-1.6333663706767183
1756899689.2882342,0.1156299247352563,-1.6677518361202543
1756899689.2901783,0.1156299247352563,-1.6789038789668067
1756899689.2922049,0.1156299247352563,-1.6510237718504261
1756899689.294134,0.1156299247352563,-1.6119916218874932
1756899689.2961378,0.1156299247352563,-1.598051568329303
1756899689.2980006,0.1156299247352563,-1.6110622849836138
1756899689.300027,0.1156299247352563,-1.6203556540224073
1756899689.3020358,0.1156299247352563,-1.6045569266564583
1756899689.303892,0.1156299247352563,-1.5729594719245605
1756899689.306491,0.1156299247352563,-1.5562314076547321
1756899689.3084843,0.1156299247352563,-1.5618074290780082
1756899689.310322,0.1156299247352563,-1.5673834505012842
1756899689.3122993,0.1156299247352563,-1.5515847231353352
1756899689.3148654,0.1156299247352563,-1.5283513005383516
1756899689.3159945,0.1156299247352563,-1.5209166053073166
1756899689.3177452,0.1156299247352563,-1.534856658865507
1756899689.319701,0.1156299247352563,-1.540432680288783
1756899689.3216302,0.1156299247352563,-1.5153405838840406
1756899689.3236282,0.1156299247352563,-1.4679444017861936
1756899689.3255973,0.1156299247352563,-1.4335589363426575
1756899689.3275185,0.1156299247352563,-1.427053578015502
1756899689.3295677,0.1156299247352563,-1.421477556592226
1756899689.3314624,0.1156299247352563,-1.3908094387642074
1756899689.3334126,0.1156299247352563,-1.348059941185757
1756899689.3354502,0.1156299247352563,-1.3285438662042905
1756899689.337355,0.1156299247352563,-1.3499186149935158
1756899689.3393097,0.1156299247352563,-1.385233417340931
1756899689.3413277,0.1156299247352563,-1.3991734708991215
1756899689.3432822,0.1156299247352563,-1.3880214280525691
1756899689.345524,0.1156299247352563,-1.376869385206017
1756899689.3471751,0.1156299247352563,-1.382445406629293
1756899689.3491795,0.1156299247352563,-1.3880214280525691
1756899689.351101,0.1156299247352563,-1.3731520375904995
1756899689.3531048,0.1156299247352563,-1.3434132566663604
1756899689.3550444,0.1156299247352563,-1.3211091709732559
1756899689.3569949,0.1156299247352563,-1.3183211602616178
1756899689.3590002,0.1156299247352563,-1.3220385078771353
1756899689.3609383,0.1156299247352563,-1.3146038126461004
1756899689.3628795,0.1156299247352563,-1.303451769799548
1756899689.3649237,0.1156299247352563,-1.308098454318945
1756899689.3668606,0.1156299247352563,-1.3313318769159288
1756899689.368794,0.1156299247352563,-1.350847951897395
1756899689.3707876,0.1156299247352563,-1.3471306042818778
1756899689.372759,0.1156299247352563,-1.323897181684894
1756899689.3746789,0.1156299247352563,-1.3053104436073069
1756899689.3767035,0.1156299247352563,-1.3053104436073069
1756899689.378651,0.1156299247352563,-1.3183211602616178
1756899689.3805752,0.1156299247352563,-1.32947320310817
1756899689.3825765,0.1156299247352563,-1.3359785614353255
1756899689.384561,0.1156299247352563,-1.3489892780896364
1756899689.3864794,0.1156299247352563,-1.376869385206017
1756899689.3884768,0.1156299247352563,-1.4131135244573116
1756899689.3904374,0.1156299247352563,-1.4382056208620542
1756899689.392816,0.1156299247352563,-1.4354176101504161
1756899689.394333,0.1156299247352563,-1.4093961768417944
1756899689.3963568,0.1156299247352563,-1.3722227006866203
1756899689.3982513,0.1156299247352563,-1.337837235243084
1756899689.4002604,0.1156299247352563,-1.3118158019344623
1756899689.402233,0.1156299247352563,-1.2904410531452373
1756899689.4041755,0.1156299247352563,-1.2709249781637708
1756899689.406171,0.1156299247352563,-1.253267576990063
1756899689.4083693,0.1156299247352563,-1.2458328817590283
1756899689.409985,0.1156299247352563,-1.2541969138939424
1756899689.4120512,0.1156299247352563,-1.2727836519715294
1756899689.4140253,0.1156299247352563,-1.2932290638568753
1756899689.415951,0.1156299247352563,-1.3090277912228243
1756899689.4179804,0.1156299247352563,-1.3155331495499798
1756899689.4198754,0.1156299247352563,-1.308098454318945
1756899689.4218204,0.1156299247352563,-1.282077021010323
1756899689.4238052,0.1156299247352563,-1.2421155341435108
1756899689.425779,0.1156299247352563,-1.2086594056038542
1756899689.4277215,0.1156299247352563,-1.2002953734689399
1756899689.4298167,0.1156299247352563,-1.216094100834889
1756899689.431669,0.1156299247352563,-1.2328221651047173
1756899689.4336195,0.1156299247352563,-1.2328221651047173
1756899689.435586,0.1156299247352563,-1.2225994591620444
1756899689.4375596,0.1156299247352563,-1.2281754805853204
1756899689.439517,0.1156299247352563,-1.2588435984133393
1756899689.4415095,0.1156299247352563,-1.295087737664634
1756899689.4434538,0.1156299247352563,-1.313674475742221
1756899689.445403,0.1156299247352563,-1.3118158019344623
1756899689.4474103,0.1156299247352563,-1.3043811067034274
1756899689.4493372,0.1156299247352563,-1.2997344221840308
1756899689.4512603,0.1156299247352563,-1.2895117162413579
1756899689.4533093,0.1156299247352563,-1.2699956412598914
1756899689.4551897,0.1156299247352563,-1.2588435984133393
1756899689.4571486,0.1156299247352563,-1.269066304356012
1756899689.4599867,0.1156299247352563,-1.2913703900491165
1756899689.4610472,0.1156299247352563,-1.2997344221840308
1756899689.463097,0.1156299247352563,-1.2867237055297198
1756899689.4650676,0.1156299247352563,-1.2811476841064438
1756899689.4669938,0.1156299247352563,-1.3155331495499798
1756899689.4689467,0.1156299247352563,-1.379657395917655
1756899689.4710646,0.1156299247352563,-1.4279829149193815
1756899689.4729345,0.1156299247352563,-1.42984158872714
1756899689.4748764,0.1156299247352563,-1.4047494923223975
1756899689.4768734,0.1156299247352563,-1.3991734708991215
1756899689.478835,0.1156299247352563,-1.4289122518232606
1756899689.4807954,0.1156299247352563,-1.4632977172667967
1756899689.4827228,0.1156299247352563,-1.4651563910745555
1756899689.4847286,0.1156299247352563,-1.4354176101504161
1756899689.486645,0.1156299247352563,-1.4131135244573116
1756899689.4886029,0.1156299247352563,-1.4251949042077434
1756899689.490574,0.1156299247352563,-1.4623683803629175
1756899689.4925368,0.1156299247352563,-1.4967538458064535
1756899689.4945543,0.1156299247352563,-1.5181285945956786
1756899689.4965143,0.1156299247352563,-1.5422913540965417
1756899689.498424,0.1156299247352563,-1.5831821778672333
1756899689.5004668,0.1156299247352563,-1.6315076968689597
1756899689.5024104,0.1156299247352563,-1.6612464777930989
1756899689.5043435,0.1156299247352563,-1.6631051516008577
1756899689.506334,0.1156299247352563,-1.6538117825620642
1756899689.5083396,0.1156299247352563,-1.6519531087543053
1756899689.5102606,0.1156299247352563,-1.6593878039853402
1756899689.5122302,0.1156299247352563,-1.6686811730241338
1756899689.5142157,0.1156299247352563,-1.6789038789668067
1756899689.5161211,0.1156299247352563,-1.6993492908521524
1756899689.518159,0.1156299247352563,-1.7337347562956884
1756899689.5200984,0.1156299247352563,-1.7709082324508625
1756899689.5220196,0.1156299247352563,-1.7997176764711225
1756899689.5240178,0.1156299247352563,-1.8266684466836238
1756899689.5259938,0.1156299247352563,-1.869417944262074
1756899689.527928,0.1156299247352563,-1.9223901477831973
1756899689.5298817,0.1156299247352563,-1.9567756132267333
1756899689.5318863,0.1156299247352563,-1.9465529072840604
1756899689.5338106,0.1156299247352563,-1.9038034097056102
1756899689.5358143,0.1156299247352563,-1.8731352918775914
1756899689.5377522,0.1156299247352563,-1.8870753454357816
1756899689.5396726,0.1156299247352563,-1.9372595382452669
1756899689.541959,0.1156299247352563,-1.9837263834392345
1756899689.543747,0.1156299247352563,-2.0023131215168215
1756899689.5456495,0.1156299247352563,-2.003242458420701
1756899689.547669,0.1156299247352563,-2.0153238381711325
1756899689.5495837,0.1156299247352563,-2.0552853250379446
1756899689.5515938,0.1156299247352563,-2.1147628868862234
1756899689.5535457,0.1156299247352563,-2.1779577963500194
1756899689.5555172,0.1156299247352563,-2.2290713260633837
1756899689.5574598,0.1156299247352563,-2.2606687807952817
1756899689.5594003,0.1156299247352563,-2.2681034760263166
1756899689.5613215,0.1156299247352563,-2.2569514331797644
1756899689.5633209,0.1156299247352563,-2.243011379621574
1756899689.5653398,0.1156299247352563,-2.2439407165254535
1756899689.5672772,0.1156299247352563,-2.2662448022185577
1756899689.5692425,0.1156299247352563,-2.293195572431059
1756899689.571204,0.1156299247352563,-2.2941249093349385
1756899689.5732183,0.1156299247352563,-2.2578807700836436
1756899689.5750792,0.1156299247352563,-2.2095552510819174
1756899689.5771272,0.1156299247352563,-2.1872511653888127
1756899689.5790572,0.1156299247352563,-2.2049085665625205
1756899689.5810647,0.1156299247352563,-2.2355766843905394
1756899689.5830257,0.1156299247352563,-2.240223368909936
1756899689.5850022,0.1156299247352563,-2.2076965772741586
1756899689.5869172,0.1156299247352563,-2.1714524380228637
1756899689.5889187,0.1156299247352563,-2.1723817749267433
1756899689.590866,0.1156299247352563,-2.2132725986974346
1756899689.592769,0.1156299247352563,-2.2634567915069197
1756899689.5951023,0.1156299247352563,-2.2969129200465765
1756899689.5967395,0.1156299247352563,-2.324793027162957
1756899689.5986671,0.1156299247352563,-2.372189209260804
1756899689.6007223,0.1156299247352563,-2.443748150859514
1756899689.602692,0.1156299247352563,-2.522741787689259
1756899689.6045554,0.1156299247352563,-2.587795370960814
1756899689.606618,0.1156299247352563,-2.640767574481937
1756899689.6085744,0.1156299247352563,-2.6946691149069393
1756899689.6104293,0.1156299247352563,-2.756005350562977
1756899689.612465,0.1156299247352563,-2.8154829124112553
1756899689.6144257,0.1156299247352563,-2.8610204207013434
1756899689.6163938,0.1156299247352563,-2.8870418540099654
1756899689.6183743,0.1156299247352563,-2.8944765492410003
1756899689.6203208,0.1156299247352563,-2.8944765492410003
1756899689.6223218,0.1156299247352563,-2.9056285920875524
1756899689.6243052,0.1156299247352563,-2.940943394434968
1756899689.6262634,0.1156299247352563,-2.9929862610522115
1756899689.6282268,0.1156299247352563,-3.0403824431500586
1756899689.6301544,0.1156299247352563,-3.0645452026509217
1756899689.6321087,0.1156299247352563,-3.0775559193052326
1756899689.634125,0.1156299247352563,-3.1026480157099754
1756899689.6360855,0.1156299247352563,-3.1481855240000636
1756899689.638069,0.1156299247352563,-3.1937230322901518
1756899689.6399755,0.1156299247352563,-3.2197444655987737
1756899689.6419814,0.1156299247352563,-3.230896508445326
1756899689.6439123,0.1156299247352563,-3.2448365620035164
1756899689.646059,0.1156299247352563,-3.2643526369849827
1756899689.6478624,0.1156299247352563,-3.2745753429276556
1756899689.649803,0.1156299247352563,-3.2689993215043796
1756899689.6517627,0.1156299247352563,-3.265281973888862
1756899689.6537426,0.1156299247352563,-3.281080701254811
1756899689.6557915,0.1156299247352563,-3.307102134563433
1756899689.6576777,0.1156299247352563,-3.3136074928905885
1756899689.6596186,0.1156299247352563,-3.291303407197484
1756899689.6616275,0.1156299247352563,-3.262493963177224
1756899689.6636012,0.1156299247352563,-3.2587766155617066
1756899689.6655202,0.1156299247352563,-3.278292690543173
1756899689.6675465,0.1156299247352563,-3.2866567226780874
1756899689.6694107,0.1156299247352563,-3.2680699846005
1756899689.671429,0.1156299247352563,-3.2383312036763607
1756899689.6734266,0.1156299247352563,-3.2299671715414466
1756899689.6753197,0.1156299247352563,-3.246695235811275
1756899689.6773207,0.1156299247352563,-3.2671406476966207
1756899689.6793249,0.1156299247352563,-3.2736460060237764
1756899689.6812189,0.1156299247352563,-3.278292690543173
1756899689.6832442,0.1156299247352563,-3.3033847869479156
1756899689.6851757,0.1156299247352563,-3.3479929583341246
1756899689.6871395,0.1156299247352563,-3.384237097585419
1756899689.6892705,0.1156299247352563,-3.388883782104816
1756899689.6910782,0.1156299247352563,-3.3712263809311085
1756899689.6930046,0.1156299247352563,-3.3582156642767975
1756899689.6950405,0.1156299247352563,-3.357286327372918
1756899689.6971805,0.1156299247352563,-3.35449831666128
1756899689.698919,0.1156299247352563,-3.334052904775934
1756899689.7009046,0.1156299247352563,-3.2987381024285187
1756899689.7029097,0.1156299247352563,-3.272716669119897
1756899689.704861,0.1156299247352563,-3.272716669119897
1756899689.7067804,0.1156299247352563,-3.2959500917168807
1756899689.7087612,0.1156299247352563,-3.3238301988332615
1756899689.7107134,0.1156299247352563,-3.3377702523914516
1756899689.712722,0.1156299247352563,-3.3303355571604167
1756899689.7146645,0.1156299247352563,-3.309890145275071
1756899689.7165525,0.1156299247352563,-3.2950207548130015
1756899689.7186208,0.1156299247352563,-3.2987381024285187
1756899689.7206051,0.1156299247352563,-3.318254177409985
1756899689.722512,0.1156299247352563,-3.3331235678720548
1756899689.724527,0.1156299247352563,-3.3266182095448995
1756899689.7264388,0.1156299247352563,-3.29687942862076
1756899689.728346,0.1156299247352563,-3.2643526369849827
1756899689.7303798,0.1156299247352563,-3.2522712572345513
1756899689.7323625,0.1156299247352563,-3.272716669119897
1756899689.7343085,0.1156299247352563,-3.318254177409985
1756899689.7363248,0.1156299247352563,-3.3777317392582638
1756899689.7382538,0.1156299247352563,-3.4325626165871457
1756899689.7402856,0.1156299247352563,-3.475312114165596
1756899689.742165,0.1156299247352563,-3.5115562534168907
1756899689.7441883,0.1156299247352563,-3.5617404462263758
1756899689.7460575,0.1156299247352563,-3.637016735440603
1756899689.7481592,0.1156299247352563,-3.729021088924659
1756899689.7499895,0.1156299247352563,-3.814520084081559
1756899689.7519891,0.1156299247352563,-3.8758563197375966
1756899689.7539964,0.1156299247352563,-3.9204644911238056
1756899689.7553363,-0.8268376169115378,-3.9204644911238056
1756899689.7559204,-0.8268376169115378,-3.9660019994138938
1756899689.7578866,-0.8268376169115378,-4.020832876742776
1756899689.7598407,-0.8268376169115378,-4.082169112398812
1756899689.761763,-0.8268376169115378,-4.142576011150971
1756899689.7638135,-0.8268376169115378,-4.202053572999249
1756899689.7657852,-0.8268376169115378,-4.265248482463045
1756899689.767764,-0.8268376169115378,-4.326584718119083
1756899689.769634,-0.8268376169115378,-4.374910237120809
1756899689.771655,-0.8268376169115378,-4.40186100733331
1756899689.773666,-0.8268376169115378,-4.41673039779538
1756899689.775527,-0.8268376169115378,-4.438105146584605
1756899689.777589,-0.8268376169115378,-4.478066633451417
1756899689.779544,-0.8268376169115378,-4.5291801631647814
1756899689.7814317,-0.8268376169115378,-4.57378833455099
1756899689.7834332,-0.8268376169115378,-4.597021757147974
1756899689.7853975,-0.8268376169115378,-4.60352711547513
1756899689.7874088,-0.8268376169115378,-4.610961810706164
1756899689.789331,-0.8268376169115378,-4.630477885687631
1756899689.7912908,-0.8268376169115378,-4.658357992804011
1756899689.793292,-0.8268376169115378,-4.686238099920392
1756899689.795226,-0.8268376169115378,-4.704824837997979
1756899689.7975,-0.8268376169115378,-4.715976880844531
1756899689.7991583,-0.8268376169115378,-4.724340912979446
1756899689.8010445,-0.8268376169115378,-4.728058260594963
1756899689.8031428,-0.8268376169115378,-4.722482239171687
1756899689.8050115,-0.8268376169115378,-4.709471522517376
1756899689.8070252,-0.8268376169115378,-4.696460805863065
1756899689.8090408,-0.8268376169115378,-4.690884784439789
1756899689.8107886,-0.8268376169115378,-4.68902611063203
1756899689.8130188,-0.8268376169115378,-4.681591415400995
1756899689.8149264,-0.8268376169115378,-4.662075340419529
1756899689.8168826,-0.8268376169115378,-4.634195233303148
1756899689.818857,-0.8268376169115378,-4.609103136898406
1756899689.8208756,-0.8268376169115378,-4.584940377397543
1756899689.822736,-0.8268376169115378,-4.556130933377283
1756899689.824701,-0.8268376169115378,-4.521745467933747
1756899689.8267114,-0.8268376169115378,-4.489218676297969
1756899689.828634,-0.8268376169115378,-4.465985253700985
1756899689.8303094,-1.1054568236151052,-4.465985253700985
1756899689.8306048,-1.1054568236151052,-4.441822494200122
1756899689.8326015,-1.1054568236151052,-4.400931670429431
1756899689.8345351,-1.1054568236151052,-4.342383445485032
1756899689.840001,-1.1054568236151052,-4.283835220540633
1756899689.8455613,-1.1054568236151052,-4.242015059866062
1756899689.84576,-1.1054568236151052,-4.215064289653561
1756899689.8459542,-1.1054568236151052,-4.185325508729421
1756899689.8461478,-1.1054568236151052,-4.142576011150971
1756899689.8502116,-1.1054568236151052,-4.097967839764761
1756899689.8504124,-1.1054568236151052,-4.069158395744502
1756899689.8507164,-1.1054568236151052,-4.05800635289795
1756899689.8522158,-1.1054568236151052,-4.0515009945707945
1756899689.8541873,-1.1054568236151052,-4.037560941012604
1756899689.856192,-1.1054568236151052,-4.01432751841562
1756899689.858074,-1.1054568236151052,-3.980871389875963
1756899689.8600764,-1.1054568236151052,-3.9344045446819957
1756899689.8620384,-1.1054568236151052,-3.8730683090259586
1756899689.864001,-1.1054568236151052,-3.8135907471776798
1756899689.8659809,-1.1054568236151052,-3.772699923406989
1756899689.8679392,-1.1054568236151052,-3.7485371639061253
1756899689.8699431,-1.1054568236151052,-3.716010372270348
1756899689.8720045,-1.1054568236151052,-3.663038168749225
1756899689.873878,-1.1054568236151052,-3.6063486176125847
1756899689.875829,-1.1054568236151052,-3.5775391735923248
1756899689.877785,-1.1054568236151052,-3.580327184303963
1756899689.8798602,-1.1054568236151052,-3.586832542631118
1756899689.8817184,-1.1054568236151052,-3.5719631521690487
1756899689.8837008,-1.1054568236151052,-3.545012381956547
1756899689.8856716,-1.1054568236151052,-3.5301429914944777
1756899689.8876088,-1.1054568236151052,-3.534789676013874
1756899689.8896065,-1.1054568236151052,-3.5431537081487887
1756899689.891544,-1.1054568236151052,-3.5431537081487887
1756899689.8934724,-1.1054568236151052,-3.5459417188604268
1756899689.894986,-1.3571995795112546,-3.5459417188604268
1756899689.895502,-1.3571995795112546,-3.553376414091461
1756899689.8985202,-1.3571995795112546,-3.534789676013874
1756899689.899412,-1.3571995795112546,-3.447432007049215
1756899689.9014056,-1.3571995795112546,-3.291303407197484
1756899689.9033124,-1.3571995795112546,-3.1203054168836832
1756899689.9053135,-1.3571995795112546,-2.9864809027250563
1756899689.9072795,-1.3571995795112546,-2.890759201625483
1756899689.9092505,-1.3571995795112546,-2.793178826718151
1756899689.9111474,-1.3571995795112546,-2.672365029213835
1756899689.913133,-1.3571995795112546,-2.557127253132795
1756899689.9151025,-1.3571995795112546,-2.49300300676512
1756899689.9171002,-1.3571995795112546,-2.501367038900034
1756899689.9190714,-1.3571995795112546,-2.562703274556071
1756899689.9210613,-1.3571995795112546,-2.643555585193575
1756899689.9229078,-1.3571995795112546,-2.715114526792285
1756899689.9249957,-1.3571995795112546,-2.756005350562977
1756899689.9269383,-1.3571995795112546,-2.762510708890132
1756899689.9288602,-1.3571995795112546,-2.759722698178494
1756899689.9308376,-1.3571995795112546,-2.78016811006384
1756899689.932742,-1.3571995795112546,-2.8368576612004803
1756899689.9347527,-1.3571995795112546,-2.8981938968565175
1756899689.936759,-1.3571995795112546,-2.9325793623000536
1756899689.9387429,-1.3571995795112546,-2.9530247741853994
1756899689.9406054,-1.3571995795112546,-3.00971432532204
1756899689.9425695,-1.3571995795112546,-3.1370334811535114
1756899689.944639,-1.3571995795112546,-3.3136074928905885
1756899689.9465497,-1.3571995795112546,-3.504121558185856
1756899689.948423,-1.3571995795112546,-3.702999655616037
1756899689.950477,-1.3571995795112546,-3.9288285232587197
1756899689.9523964,-1.3571995795112546,-4.167668107555714
1756899689.9544106,-1.3571995795112546,-4.3665462049858945
1756899689.956417,-1.3571995795112546,-4.481783981066934
1756899689.9583192,-1.3571995795112546,-4.520816131029867
1756899689.9602983,-1.3571995795112546,-4.522674804837626
1756899689.9622333,-1.3571995795112546,-4.498512045336763
1756899689.9642265,-1.3571995795112546,-4.423235756122535
1756899689.966139,-1.4996447687905705,-4.423235756122535
1756899689.9661944,-1.4996447687905705,-4.282905883636753
1756899689.9682465,-1.4996447687905705,-4.110978556419073
1756899689.9700923,-1.4996447687905705,-3.962284651798376
1756899689.9721,-1.4996447687905705,-3.8628456030832856
1756899689.974183,-1.4996447687905705,-3.791286661484576
1756899689.9760487,-1.4996447687905705,-3.7271624151169003
1756899689.9780338,-1.4996447687905705,-3.6797662330190533
1756899689.9799583,-1.4996447687905705,-3.668614190172501
1756899689.981964,-1.4996447687905705,-3.686271591346209
1756899689.983827,-1.4996447687905705,-3.697423634192761
1756899689.985901,-1.4996447687905705,-3.681624906826812
1756899689.9878385,-1.4996447687905705,-3.647239441383276
1756899689.989793,-1.4996447687905705,-3.611924639035861
1756899689.9917746,-1.4996447687905705,-3.5747511628806867
1756899689.993687,-1.4996447687905705,-3.519920285551805
1756899689.995724,-1.4996447687905705,-3.439067974914301
1756899689.9977129,-1.4996447687905705,-3.351710305949642
1756899689.9995666,-1.4996447687905705,-3.281080701254811
1756899690.0016434,-1.4996447687905705,-3.2374018667724815
1756899690.003494,-1.4996447687905705,-3.2095217596561008
1756899690.0054815,-1.4996447687905705,-3.1779243049242027
1756899690.007531,-1.4996447687905705,-3.1323867966341146
1756899690.0094929,-1.4996447687905705,-3.0766265824013534
1756899690.0113091,-1.4996447687905705,-3.025513052687989
1756899690.013377,-1.4996447687905705,-2.9874102396289355
1756899690.0152826,-1.4996447687905705,-2.9678941646474692
1756899690.0173423,-1.4996447687905705,-2.9632474801280724
1756899690.0193014,-1.4996447687905705,-2.9734701860707453
1756899690.021294,-1.4996447687905705,-2.9994916193793673
1756899690.023209,-1.4996447687905705,-3.0487464752849727
1756899690.0251205,-1.4996447687905705,-3.1249521014030797
1756899690.0271685,-1.4996447687905705,-3.2141684441754976
1756899690.0290918,-1.4996447687905705,-3.291303407197484
1756899690.0310664,-1.4996447687905705,-3.331264894064296
1756899690.033027,-1.4996447687905705,-3.328476883352658
1756899690.034276,-1.4709765545959912,-3.328476883352658
1756899690.03499,-1.4709765545959912,-3.29687942862076
1756899690.0369873,-1.4709765545959912,-3.262493963177224
1756899690.0389173,-1.4709765545959912,-3.2364725298686023
1756899690.040854,-1.4709765545959912,-3.2169564548871357
1756899690.042884,-1.4709765545959912,-3.19651104300179
1756899690.0449655,-1.4709765545959912,-3.1797829787319616
1756899690.0467322,-1.4709765545959912,-3.180712315635841
1756899690.0645428,-1.4709765545959912,-3.2039457382328247
1756899690.0648372,-1.4709765545959912,-3.2392605405802404
1756899690.065054,-1.4709765545959912,-3.2708579953121384
1756899690.0652587,-1.4709765545959912,-3.2894447333897254
1756899690.0654564,-1.4709765545959912,-3.291303407197484
1756899690.0656557,-1.4709765545959912,-3.2764340167354145
1756899690.0658507,-1.4709765545959912,-3.2522712572345513
1756899690.066049,-1.4709765545959912,-3.2327551822530847
1756899690.0662498,-1.4709765545959912,-3.233684519156964
1756899690.0664482,-1.4709765545959912,-3.2476245727151545
1756899690.068356,-1.4709765545959912,-3.2522712572345513
1756899690.0703044,-1.4709765545959912,-3.2327551822530847
1756899690.0723336,-1.4709765545959912,-3.2020870644250663
1756899690.0852118,-1.4709765545959912,-3.1900056846746345
1756899690.0854416,-1.4709765545959912,-3.2085924227522216
1756899690.085639,-1.4709765545959912,-3.2355431929647227
1756899690.085848,-1.4709765545959912,-3.2392605405802404
1756899690.0860448,-1.4709765545959912,-3.2113804334638596
1756899690.086242,-1.4709765545959912,-3.1742069573086855
1756899690.0864398,-1.4709765545959912,-3.1537615454233396
1756899690.088013,-1.4709765545959912,-3.1528322085194604
1756899690.106112,-1.2855290440248064,-3.1528322085194604
1756899690.1072328,-1.2855290440248064,-3.1593375668466157
1756899690.1077662,-1.2855290440248064,-3.1630549144621334
1756899690.108272,-1.2855290440248064,-3.1686309358854094
1756899690.108732,-1.2855290440248064,-3.1825709894435996
1756899690.110373,-1.2855290440248064,-3.2020870644250663
1756899690.1122158,-1.2855290440248064,-3.2197444655987737
1756899690.1126888,-1.2855290440248064,-3.2364725298686023
1756899690.1131434,-1.2855290440248064,-3.259705952465586
1756899690.113587,-1.2855290440248064,-3.2931620810052427
1756899690.1140294,-1.2855290440248064,-3.334052904775934
1756899690.1145844,-1.2855290440248064,-3.3637916857000736
1756899690.115087,-1.2855290440248064,-3.364721022603953
1756899690.1158133,-1.2855290440248064,-3.334052904775934
1756899690.1161427,-1.2855290440248064,-3.2903740702936046
1756899690.117422,-1.2855290440248064,-3.2578472786578274
1756899690.119497,-1.2855290440248064,-3.2513419203306717
1756899690.121365,-1.2855290440248064,-3.2587766155617066
1756899690.1233566,-1.2855290440248064,-3.2559886048500686
1756899690.125312,-1.2855290440248064,-3.2346138560608435
1756899690.1273394,-1.2855290440248064,-3.2085924227522216
1756899690.1293013,-1.2855290440248064,-3.2058044120405835
1756899690.132457,-1.2855290440248064,-3.2411192143879988
1756899690.1331751,-1.2855290440248064,-3.304314123851795
1756899690.1399996,-1.2855290440248064,-3.370297044027229
1756899690.1402316,-1.2855290440248064,-3.418622563028955
1756899690.1404283,-1.2855290440248064,-3.444643996337577
1756899690.1421807,-1.2855290440248064,-3.460442723703526
1756899690.143341,-1.2855290440248064,-3.4771707879733547
1756899690.1449883,-1.2855290440248064,-3.504121558185856
1756899690.1468985,-1.2855290440248064,-3.535719012917754
1756899690.1489792,-1.2855290440248064,-3.565457793841893
1756899690.1508632,-1.2855290440248064,-3.591479227150515
1756899690.1532269,-1.2855290440248064,-3.621218008074654
1756899690.1691585,-1.2855290440248064,-3.663038168749225
1756899690.1694422,-1.2855290440248064,-3.718798382981986
1756899690.169644,-1.2855290440248064,-3.781993292445782
1756899690.170263,-1.2855290440248064,-3.840541517390181
1756899690.1707225,-1.2855290440248064,-3.8888670363919076
1756899690.1709898,-1.2855290440248064,-3.925111175643202
1756899690.171189,-1.2855290440248064,-3.951132608951824
1756899690.1713872,-1.2855290440248064,-3.964143325606135
1756899690.1716168,-1.2855290440248064,-3.962284651798376
1756899690.1740382,-1.2855290440248064,-3.9474152613363067
1756899690.1743617,-0.8976122707044054,-3.9474152613363067
1756899690.174496,-0.8976122707044054,-3.925111175643202
1756899690.176468,-0.8976122707044054,-3.9046657637578566
1756899690.1783948,-0.8976122707044054,-3.896301731622942
1756899690.1811838,-0.8976122707044054,-3.9046657637578566
1756899690.1855063,-0.8976122707044054,-3.925111175643202
1756899690.1858037,-0.8976122707044054,-3.945556587528548
1756899690.186545,-0.8976122707044054,-3.955779293471221
1756899690.1882184,-0.8976122707044054,-3.9567086303751
1756899690.190181,-0.8976122707044054,-3.9576379672789797
1756899690.192203,-0.8976122707044054,-3.969719347029411
1756899690.1940444,-0.8976122707044054,-3.991094095818636
1756899690.2011168,-0.8976122707044054,-4.012468844607861
1756899690.2013416,-0.8976122707044054,-4.020832876742776
1756899690.201599,-0.8976122707044054,-4.01432751841562
1756899690.2019925,-0.8976122707044054,-4.0041048124729475
1756899690.2042174,-0.8976122707044054,-4.0087514969923435
1756899690.227512,-0.8976122707044054,-4.031055582685449
1756899690.2278104,-0.8976122707044054,-4.057077015994071
1756899690.2280092,-0.8976122707044054,-4.061723700513467
1756899690.228247,-0.8976122707044054,-4.0412782886281216
1756899690.2284482,-0.8976122707044054,-4.011539507703982
1756899690.2286978,-0.8976122707044054,-3.9975994541457918
1756899690.2288938,-0.8976122707044054,-3.9948114434341537
1756899690.2291248,-0.8976122707044054,-3.9818007267798428
1756899690.2294486,-0.8976122707044054,-3.9446272506246687
1756899690.2296507,-0.8976122707044054,-3.900948416142339
1756899690.2298894,-0.8976122707044054,-3.882361678064752
1756899690.2300897,-0.8976122707044054,-3.8916550471035456
1756899690.2462597,-0.6095863062182417,-3.8916550471035456
1756899690.2544415,-0.6095863062182417,-3.901877753046218
1756899690.254726,-0.6095863062182417,-3.893513720911304
1756899690.2549877,-0.6095863062182417,-3.880503004256993
1756899690.2551858,-0.6095863062182417,-3.8916550471035456
1756899690.2554598,-0.6095863062182417,-3.930687197066478
1756899690.2556586,-0.6095863062182417,-3.9632139887022557
1756899690.2558565,-0.6095863062182417,-3.9576379672789797
1756899690.2560537,-0.6095863062182417,-3.917676480412167
1756899690.2562492,-0.6095863062182417,-3.877714993545355
1756899690.2564442,-0.6095863062182417,-3.866562950698803
1756899690.2566383,-0.6095863062182417,-3.879573667353114
1756899690.25685,-0.6095863062182417,-3.893513720911304
1756899690.2570462,-0.6095863062182417,-3.8888670363919076
1756899690.257241,-0.6095863062182417,-3.8656336137949237
1756899690.257438,-0.6095863062182417,-3.8396121804863017
1756899690.2592454,-0.6095863062182417,-3.82753080073587
1756899690.266461,-0.6095863062182417,-3.834965495966905
1756899690.266702,-0.6095863062182417,-3.8572695816600095
1756899690.2668996,-0.6095863062182417,-3.88514968877639
1756899690.2670968,-0.6095863062182417,-3.9074537744694946
1756899690.2687445,-0.6095863062182417,-3.919535154219926
1756899690.2707598,-0.6095863062182417,-3.912100458988891
1756899690.2727752,-0.6095863062182417,-3.8842203518725107
1756899690.2746658,-0.6095863062182417,-3.8424001911979397
1756899690.277267,-0.6095863062182417,-3.8042973781388865
1756899690.2785738,-0.6095863062182417,-3.783851966253541
1756899690.280537,-0.6095863062182417,-3.773629260310868
1756899690.282499,-0.6095863062182417,-3.753183848425522
1756899690.284456,-0.6095863062182417,-3.7085756770393132
1756899690.2894886,-0.6095863062182417,-3.65560347351819
1756899690.2898438,-0.6095863062182417,-3.6221473449785337
1756899690.2904778,-0.6095863062182417,-3.624935355690172
1756899690.2924538,-0.6095863062182417,-3.658391484229828
1756899690.2943146,-0.6095863062182417,-3.704858329423796
1756899690.3072584,-0.6095863062182417,-3.744819816290608
1756899690.3075657,-0.6095863062182417,-3.7671239019837124
1756899690.307767,-0.6095863062182417,-3.77084124959923
1756899690.3080063,-0.6095863062182417,-3.776417271022506
1756899690.3083408,-0.6095863062182417,-3.8070853888505245
1756899690.3086991,-0.6095863062182417,-3.866562950698803
1756899690.3089037,-0.6095863062182417,-3.9288285232587197
1756899690.310018,-0.6095863062182417,-3.965072662510014
1756899690.3120017,-0.6095863062182417,-3.974366031548808
1756899690.321169,-0.6095863062182417,-3.983659400587601
1756899690.321409,-0.6095863062182417,-4.011539507703982
1756899690.321705,-0.6095863062182417,-4.049642320763035
1756899690.3219068,-0.6095863062182417,-4.081239775494933
1756899690.3224802,-0.6095863062182417,-4.11376656713071
1756899690.3232498,-0.5706154525474855,-4.11376656713071
1756899690.3237672,-0.5706154525474855,-4.167668107555714
1756899690.3257358,-0.5706154525474855,-4.237368375346665
1756899690.3277435,-0.5706154525474855,-4.2875525681561495
1756899690.3297029,-0.5706154525474855,-4.293128589579426
1756899690.333343,-0.5706154525474855,-4.274541851501839
1756899690.3336096,-0.5706154525474855,-4.274541851501839
1756899690.335633,-0.5706154525474855,-4.30149262171434
1756899690.337591,-0.5706154525474855,-4.3191500228880475
1756899690.3396077,-0.5706154525474855,-4.2875525681561495
1756899690.3415892,-0.5706154525474855,-4.216922963461319
1756899690.3435173,-0.5706154525474855,-4.156516064709161
1756899690.3455312,-0.5706154525474855,-4.1351413159199355
1756899690.347791,-0.5706154525474855,-4.134211979016056
1756899690.3493965,-0.5706154525474855,-4.1193425885539865
1756899690.3513622,-0.5706154525474855,-4.081239775494933
1756899690.356926,-0.5706154525474855,-4.044066299339759
1756899690.35875,-0.5706154525474855,-4.036631604108725
1756899690.3590417,-0.5706154525474855,-4.057077015994071
1756899690.3592412,-0.5706154525474855,-4.08588646001433
1756899690.361417,-0.5706154525474855,-4.101685187380279
1756899690.363351,-0.5706154525474855,-4.099826513572521
1756899690.3654056,-0.5706154525474855,-4.086815796918209
1756899690.3701415,-0.5706154525474855,-4.073805080263899
1756899690.370366,-0.5706154525474855,-4.066370385032863
1756899690.3715646,-0.5706154525474855,-4.063582374321226
1756899690.372924,-0.5706154525474855,-4.057077015994071
1756899690.374754,-0.5706154525474855,-4.038490277916483
1756899690.3767233,-0.5706154525474855,-4.0096808338962235
1756899690.3787944,-0.5706154525474855,-3.9818007267798428
1756899690.381382,-0.5706154525474855,-3.9632139887022557
1756899690.382657,-0.5706154525474855,-3.9567086303751
1756899690.3846035,-0.5706154525474855,-3.951132608951824
1756899690.386063,-0.459974063390281,-3.951132608951824
1756899690.3865843,-0.459974063390281,-3.9344045446819957
1756899690.388585,-0.459974063390281,-3.901877753046218
1756899690.3904903,-0.459974063390281,-3.8526228971406127
1756899690.3926363,-0.459974063390281,-3.797792019811731
1756899690.3944132,-0.459974063390281,-3.7457491531944873
1756899690.3963926,-0.459974063390281,-3.705787666327675
1756899690.3985546,-0.459974063390281,-3.674190211595777
1756899690.4005446,-0.459974063390281,-3.644451430671638
1756899690.4024825,-0.459974063390281,-3.611924639035861
1756899690.4044783,-0.459974063390281,-3.576609836688445
1756899690.4064436,-0.459974063390281,-3.5459417188604268
1756899690.4085577,-0.459974063390281,-3.523637633167322
1756899690.4103398,-0.459974063390281,-3.502262884378097
1756899690.412276,-0.459974063390281,-3.473453440357837
1756899690.4142368,-0.459974063390281,-3.4353506272987837
1756899690.4175863,-0.459974063390281,-3.388883782104816
1756899690.4190323,-0.459974063390281,-3.3396289261992105
1756899690.42197,-0.459974063390281,-3.2875860595819666
1756899690.4220767,-0.459974063390281,-3.2383312036763607
1756899690.4245863,-0.459974063390281,-3.1927936953862726
1756899690.4260943,-0.459974063390281,-3.1463268501923047
1756899690.429539,-0.459974063390281,-3.0942839835750613
1756899690.4299529,-0.459974063390281,-3.0440997907655762
1756899690.434007,-0.459974063390281,-3.0162196836491955
1756899690.434086,-0.459974063390281,-3.0283010633996272
1756899690.436543,-0.459974063390281,-3.0710505609780774
1756899690.4377072,-0.459974063390281,-3.1072947002293723
1756899690.4410026,-0.459974063390281,-3.1063653633254926
1756899690.4415543,-0.459974063390281,-3.0794145931129915
1756899690.44367,-0.459974063390281,-3.0645452026509217
1756899690.445721,-0.459974063390281,-3.0868492883440264
1756899690.447564,-0.459974063390281,-3.1314574597302354
1756899690.449659,-0.459974063390281,-3.1519028716155812
1756899690.451394,-0.459974063390281,-3.1249521014030797
1756899690.453403,-0.459974063390281,-3.072909234785836
1756899690.454221,-0.07250523091667029,-3.072909234785836
1756899690.4554226,-0.07250523091667029,-3.0422411169578174
1756899690.4573364,-0.07250523091667029,-3.0561811705160076
1756899690.4593074,-0.07250523091667029,-3.0970719942866993
1756899690.4612184,-0.07250523091667029,-3.1361041442496322
1756899690.4633665,-0.07250523091667029,-3.1602669037504953
1756899690.465307,-0.07250523091667029,-3.180712315635841
1756899690.4672894,-0.07250523091667029,-3.2039457382328247
1756899690.4696567,-0.07250523091667029,-3.2243911501181706
1756899690.4714231,-0.07250523091667029,-3.230896508445326
1756899690.473385,-0.07250523091667029,-3.230896508445326
1756899690.4754033,-0.07250523091667029,-3.2383312036763607
1756899690.4773,-0.07250523091667029,-3.2485539096190337
1756899690.4792538,-0.07250523091667029,-3.2374018667724815
1756899690.4812317,-0.07250523091667029,-3.1890763477707553
1756899690.483117,-0.07250523091667029,-3.1268107752108385
1756899690.4862056,-0.07250523091667029,-3.0942839835750613
1756899690.4869585,-0.07250523091667029,-3.1082240371332515
1756899690.488915,-0.07250523091667029,-3.1416801656729083
1756899690.4908886,-0.07250523091667029,-3.1556202192310985
1756899690.4929955,-0.07250523091667029,-3.1426095025767875
1756899690.5011587,-0.07250523091667029,-3.1314574597302354
1756899690.50144,-0.07250523091667029,-3.1481855240000636
1756899690.5015297,-0.07250523091667029,-3.1797829787319616
1756899690.501602,-0.07250523091667029,-3.1853590001552377
1756899690.502663,-0.07250523091667029,-3.1435388394806667
1756899690.5046327,-0.07250523091667029,-3.072909234785836
1756899690.5065837,-0.07250523091667029,-3.0078556515142814
1756899690.5085464,-0.07250523091667029,-2.959530132512555
1756899690.5105093,-0.07250523091667029,-2.9102752766069493
1756899690.5125773,-0.07250523091667029,-2.840575008815998
1756899690.5145311,-0.07250523091667029,-2.75135866604358
1756899690.5167215,-0.07250523091667029,-2.667718344694438
1756899690.5193532,-0.07250523091667029,-2.606382109038401
1756899690.5204473,-0.07250523091667029,-2.557127253132795
1756899690.5260997,0.47868598105879556,-2.557127253132795
1756899690.530309,0.47868598105879556,-2.4995083650922756
1756899690.5304587,0.47868598105879556,-2.429808097301324
1756899690.530582,0.47868598105879556,-2.364754514029769
1756899690.5307035,0.47868598105879556,-2.3182876688358016
1756899690.530826,0.47868598105879556,-2.2839022033922656
1756899690.5322134,0.47868598105879556,-2.2327886736789013
1756899690.5341575,0.47868598105879556,-2.1491483523297594
1756899690.5360613,0.47868598105879556,-2.0497093036146685
1756899690.5380363,0.47868598105879556,-1.9632809715538888
1756899690.5404718,0.47868598105879556,-1.9019447358978514
1756899690.541998,0.47868598105879556,-1.8545485538000044
1756899690.5438907,0.47868598105879556,-1.8043643609905193
1756899690.546064,0.47868598105879556,-1.7476748098538788
1756899690.547853,0.47868598105879556,-1.6928439325249969
1756899690.550187,0.47868598105879556,-1.6454477504271499
1756899690.5518873,0.47868598105879556,-1.5999102421370617
1756899690.5542016,0.47868598105879556,-1.5599487552702496
1756899690.559831,0.47868598105879556,-1.5339273219616276
1756899690.5599167,0.47868598105879556,-1.5292806374422308
1756899690.5599632,0.47868598105879556,-1.5302099743461102
1756899690.5615609,0.47868598105879556,-1.5116232362685231
1756899690.563733,0.47868598105879556,-1.471661749401711
1756899690.5654612,0.47868598105879556,-1.4363469470542956
1756899690.5684073,0.47868598105879556,-1.4354176101504161
1756899690.5694015,0.47868598105879556,-1.4679444017861936
1756899690.571333,0.47868598105879556,-1.5041885410374882
1756899690.573291,0.47868598105879556,-1.5209166053073166
1756899690.5761197,0.47868598105879556,-1.5199872684034372
1756899690.577217,0.47868598105879556,-1.5171992576917992
1756899690.5794644,0.47868598105879556,-1.5199872684034372
1756899690.5813098,0.47868598105879556,-1.5302099743461102
1756899690.5831883,0.47868598105879556,-1.5525140600392147
1756899690.594026,0.47868598105879556,-1.5887581992905093
1756899690.5941288,0.9989692746057306,-1.5887581992905093
1756899690.5941665,0.9989692746057306,-1.6333663706767183
1756899690.5942645,0.9989692746057306,-1.6649638254086163
1756899690.59436,0.9989692746057306,-1.6668224992163752
1756899690.594457,0.9989692746057306,-1.6454477504271499
1756899690.597213,0.9989692746057306,-1.6268610123495628
1756899690.597338,0.9989692746057306,-1.6296490230612009
1756899690.5988648,0.9989692746057306,-1.6519531087543053
1756899690.6008048,0.9989692746057306,-1.6686811730241338
1756899690.6028273,0.9989692746057306,-1.6603171408892197
1756899690.6047285,0.9989692746057306,-1.6296490230612009
1756899690.606755,0.9989692746057306,-1.6054862635603377
1756899690.608701,0.9989692746057306,-1.6212849909262868
1756899690.6106253,0.9989692746057306,-1.6844799003900828
1756899690.6127348,0.9989692746057306,-1.7671908848353453
1756899690.6146588,0.9989692746057306,-1.8257391097797444
1756899690.61681,0.9989692746057306,-1.848972532376728
1756899690.6195762,0.9989692746057306,-1.866629933550436
1756899690.6208072,0.9989692746057306,-1.9149554525521624
1756899690.6230974,0.9989692746057306,-1.9865143941508727
1756899690.625542,0.9989692746057306,-2.0339105762487195
1756899690.626625,0.9989692746057306,-2.0236878703060466
1756899690.628555,0.9989692746057306,-1.9790796989198378
1756899690.630409,0.9989692746057306,-1.9502702548995778
1756899690.6324224,0.9989692746057306,-1.9623516346500094
1756899690.634351,0.9989692746057306,-1.9948784262857868
1756899690.6363587,0.9989692746057306,-2.0153238381711325
1756899690.6383324,0.9989692746057306,-2.0134651643633736
1756899690.6404293,0.9989692746057306,-2.0134651643633736
1756899690.6423216,0.9989692746057306,-2.0394865976719956
1756899690.644122,0.9989692746057306,-2.0933881380969983
1756899690.646197,0.9989692746057306,-2.1537950368491563
1756899690.6483514,0.9989692746057306,-2.1928271868120888
1756899690.6501555,0.9989692746057306,-2.1891098391965715
1756899690.6634674,0.9989692746057306,-2.1482190154258802
1756899690.6637318,0.9989692746057306,-2.0971054857125155
1756899690.6638143,0.9989692746057306,-2.0738720631155316
1756899690.6665063,1.3886778113132927,-2.0738720631155316
1756899690.670069,1.3886778113132927,-2.0887414535776014
1756899690.670174,1.3886778113132927,-2.1138335499823437
1756899690.6704607,1.3886778113132927,-2.1110455392707057
1756899690.670512,1.3886778113132927,-2.0720133893077732
1756899690.6705592,1.3886778113132927,-2.0329812393448403
1756899690.6706052,1.3886778113132927,-2.0329812393448403
1756899690.6706517,1.3886778113132927,-2.0701547155000144
1756899690.6719954,1.3886778113132927,-2.1063988547513093
1756899690.6735308,1.3886778113132927,-2.1073281916551885
1756899690.675549,1.3886778113132927,-2.0766600738271697
1756899690.6774306,1.3886778113132927,-2.0562146619418242
1756899690.679493,1.3886778113132927,-2.0766600738271697
1756899690.6814766,1.3886778113132927,-2.1277736035405344
1756899690.6833289,1.3886778113132927,-2.1770284594461398
1756899690.685367,1.3886778113132927,-2.2039792296586413
1756899690.687345,1.3886778113132927,-2.214201935601314
1756899690.6893947,1.3886778113132927,-2.2281419891595045
1756899690.6920614,1.3886778113132927,-2.2504460748526087
1756899690.6931915,1.3886778113132927,-2.2736794974495926
1756899690.6951425,1.3886778113132927,-2.2829728664883864
1756899690.6971066,1.3886778113132927,-2.271820823641834
1756899690.699096,1.3886778113132927,-2.240223368909936
1756899690.7010295,1.3886778113132927,-2.1946858606198476
1756899690.7029846,1.3886778113132927,-2.1537950368491563
1756899690.704966,1.3886778113132927,-2.1389256463870865
1756899690.7127235,1.3886778113132927,-2.1565830475607943
1756899690.7131248,1.3886778113132927,-2.1872511653888127
1756899690.713586,1.3886778113132927,-2.2002618820431237
1756899690.7139585,1.3886778113132927,-2.1826044808694163
1756899690.7162316,1.3886778113132927,-2.1537950368491563
1756899690.716875,1.3886778113132927,-2.1426429940026037
1756899690.7187264,1.3886778113132927,-2.1575123844646735
1756899690.721481,1.3886778113132927,-2.1751697856383814
1756899690.7227397,1.3886778113132927,-2.1658764165995876
1756899690.7250938,1.3886778113132927,-2.1221975821172583
1756899690.7265534,1.3886778113132927,-2.0645786940767383
1756899690.728528,1.3886778113132927,-2.021829196498288
1756899690.7304509,1.3886778113132927,-2.0097478167478564
1756899690.732544,1.3886778113132927,-2.016253175075012
1756899690.7341845,1.7067158125344069,-2.016253175075012
1756899690.7347183,1.7067158125344069,-2.0199705226905293
1756899690.7367022,1.7067158125344069,-2.0153238381711325
1756899690.738686,1.7067158125344069,-2.01904118578665
1756899690.7405794,1.7067158125344069,-2.0413452714797544
1756899690.7426126,1.7067158125344069,-2.0655080309806175
1756899690.7445402,1.7067158125344069,-2.0617906833651003
1756899690.746463,1.7067158125344069,-2.0236878703060466
1756899690.748968,1.7067158125344069,-1.9865143941508727
1756899690.7502706,1.7067158125344069,-1.9827970465353553
1756899690.7523308,1.7067158125344069,-2.0013837846129423
1756899690.7543314,1.7067158125344069,-1.9939490893819074
1756899690.7562072,1.7067158125344069,-1.9344715275336288
1756899690.7580569,1.7067158125344069,-1.859195238319401
1756899690.7600598,1.7067158125344069,-1.830385794299141
1756899690.7620077,1.7067158125344069,-1.8703472811659534
1756899690.7639592,1.7067158125344069,-1.9446942334763018
1756899690.7659223,1.7067158125344069,-2.016253175075012
1756899690.7678132,1.7067158125344069,-2.0915294642892395
1756899690.7697864,1.7067158125344069,-2.2086259141780378
1756899690.7717974,1.7067158125344069,-2.3870585997228737
1756899690.77371,1.7067158125344069,-2.604523435230642
1756899690.7877758,1.7067158125344069,-2.8340696504888423
1756899690.7880242,1.7067158125344069,-3.0664038764586805
1756899690.793049,1.7067158125344069,-3.309890145275071
1756899690.7934422,1.7067158125344069,-3.5589524355147377
1756899690.7936463,1.7067158125344069,-3.7745585972147473
1756899690.7937698,1.7067158125344069,-3.914888469700529
1756899690.7938874,1.7067158125344069,-3.968790010125532
1756899690.794178,1.7067158125344069,-3.968790010125532
1756899690.7942996,1.7067158125344069,-3.9548499565673416
1756899690.7945087,1.7067158125344069,-3.9344045446819957
1756899690.79593,1.7067158125344069,-3.876785656641476
1756899690.7977457,1.7067158125344069,-3.752254511521643
1756899690.7994034,1.7067158125344069,-3.579397847400083
1756899690.8031018,1.7067158125344069,-3.4251279213561108
1756899690.803252,1.7067158125344069,-3.347063621430245
1756899690.8052804,1.7067158125344069,-3.3349822416798136
1756899690.8071415,1.7067158125344069,-3.3247595357371407
1756899690.807219,1.7165705111637934,-3.3247595357371407
1756899690.8091912,1.7165705111637934,-3.275504679831535
1756899690.811103,1.7165705111637934,-3.2132391072716184
1756899690.8159697,1.7165705111637934,-3.1946523691940314
1756899690.8162851,1.7165705111637934,-3.230896508445326
1756899690.8174367,1.7165705111637934,-3.272716669119897
1756899690.8192132,1.7165705111637934,-3.265281973888862
1756899690.822273,1.7165705111637934,-3.2076630858483424
1756899690.823156,1.7165705111637934,-3.1435388394806667
1756899690.82492,1.7165705111637934,-3.1035773526138546
1756899690.8355708,1.7165705111637934,-3.0812732669207503
1756899690.8357794,1.7165705111637934,-3.0589691812276456
1756899690.8365052,1.7165705111637934,-3.0338770848229033
1756899690.8366945,1.7165705111637934,-3.0180783574569543
1756899690.8368533,1.7165705111637934,-3.0171490205530747
1756899690.8370082,1.7165705111637934,-3.0217957050724715
1756899690.8404336,1.7165705111637934,-3.0162196836491955
1756899690.8406255,1.7165705111637934,-2.9948449348599704
1756899690.847028,1.7165705111637934,-2.9632474801280724
1756899690.8519197,1.7165705111637934,-2.930720688492295
1756899690.8520863,1.7165705111637934,-2.899123233760397
1756899690.852208,1.7165705111637934,-2.8656671052207403
1756899690.8523257,1.7165705111637934,-2.8238469445461694
1756899690.8569398,1.7165705111637934,-2.775521425544443
1756899690.8570983,1.7165705111637934,-2.7392772862931483
1756899690.8572185,1.7165705111637934,-2.73741861248539
1756899690.858495,1.7165705111637934,-2.7680867303134082
1756899690.8603086,1.7165705111637934,-2.8024721957569443
1756899690.8624167,1.7165705111637934,-2.8126949016996172
1756899690.864367,1.7165705111637934,-2.804330869564703
1756899690.8663185,1.7165705111637934,-2.8052602064685823
1756899690.8684664,1.7165705111637934,-2.817341586219014
1756899690.87055,1.7165705111637934,-2.811765564795738
1756899690.8722825,1.7165705111637934,-2.7634400457940114
1756899690.8740706,1.7165705111637934,-2.695598451810819
1756899690.8742332,1.5248518287375443,-2.695598451810819
1756899690.876274,1.5248518287375443,-2.653778291136248
1756899690.8787785,1.5248518287375443,-2.646343595905213
1756899690.8801005,1.5248518287375443,-2.627756857827626
1756899690.881994,1.5248518287375443,-2.557127253132795
1756899690.8839605,1.5248518287375443,-2.462334888937101
1756899690.8859518,1.5248518287375443,-2.4158680437431337
1756899690.8881133,1.5248518287375443,-2.4521121829944286
1756899690.8901331,1.5248518287375443,-2.5208831138815007
1756899690.8918898,1.5248518287375443,-2.537611178151329
1756899690.8947244,1.5248518287375443,-2.482780300822447
1756899690.897531,1.5248518287375443,-2.412150696127616
1756899690.897691,1.5248518287375443,-2.396351968761667
1756899690.8998165,1.5248518287375443,-2.4418894770517556
1756899690.9017065,1.5248518287375443,-2.491144332957361
1756899690.903726,1.5248518287375443,-2.4948616805728787
1756899690.9060688,1.5248518287375443,-2.461405552033222
1756899690.9076257,1.5248518287375443,-2.4363134556284796
1756899690.9095514,1.5248518287375443,-2.4474654984750317
1756899690.9113803,1.5248518287375443,-2.482780300822447
1756899690.9136076,1.5248518287375443,-2.506013723419431
1756899690.916295,1.5248518287375443,-2.4976496912845167
1756899690.917503,1.5248518287375443,-2.465122899648739
1756899690.9195876,1.5248518287375443,-2.430737434205203
1756899690.9212737,1.5248518287375443,-2.40657467470434
1756899690.9245348,1.5248518287375443,-2.3917052842422706
1756899690.9262395,1.5248518287375443,-2.37776523068408
1756899690.927247,1.5248518287375443,-2.359178492606493
1756899690.9291608,1.5248518287375443,-2.337803743817268
1756899690.931064,1.5248518287375443,-2.3229343533551985
1756899690.9353852,1.5248518287375443,-2.322005016451319
1756899690.935517,1.5248518287375443,-2.330369048586233
1756899690.9395454,1.5248518287375443,-2.340591754528906
1756899690.9414155,1.5248518287375443,-2.3452384390483028
1756899690.9416578,1.5248518287375443,-2.350814460471579
1756899690.943075,1.5248518287375443,-2.364754514029769
1756899690.946128,1.5248518287375443,-2.385199925915115
1756899690.9468048,1.212189117677914,-2.385199925915115
1756899690.9470696,1.212189117677914,-2.398210642569426
1756899690.948991,1.212189117677914,-2.3898466104345117
1756899690.95091,1.212189117677914,-2.3628958402220106
1756899690.9527566,1.212189117677914,-2.3331570592978714
1756899690.9545734,1.212189117677914,-2.314570321220284
1756899690.9567473,1.212189117677914,-2.3006302676620938
1756899690.958778,1.212189117677914,-2.2764675081612307
1756899690.960669,1.212189117677914,-2.2439407165254535
1756899690.9626422,1.212189117677914,-2.2188486201207107
1756899690.964466,1.212189117677914,-2.2188486201207107
1756899690.9665823,1.212189117677914,-2.2374353581982978
1756899690.968601,1.212189117677914,-2.2467287272370915
1756899690.9704864,1.212189117677914,-2.2309299998711425
1756899690.9725606,1.212189117677914,-2.2030498927547617
1756899690.9743185,1.212189117677914,-2.1946858606198476
1756899690.976354,1.212189117677914,-2.2234953046401076
1756899690.9783518,1.212189117677914,-2.2699621498340754
1756899690.980275,1.212189117677914,-2.2997009307582146
1756899690.982388,1.212189117677914,-2.2969129200465765
1756899690.9840305,1.212189117677914,-2.2811141926806275
1756899690.987629,1.212189117677914,-2.2866902141039036
1756899690.9884832,1.212189117677914,-2.327581037874595
1756899690.9967046,1.212189117677914,-2.379623904491839
1756899691.00378,1.212189117677914,-2.40657467470434
1756899691.0042026,1.212189117677914,-2.3991399794733055
1756899691.0044456,1.212189117677914,-2.380553241395718
1756899691.0046792,1.212189117677914,-2.3786945675879596
1756899691.004966,1.212189117677914,-2.393563958050029
1756899691.0051975,1.212189117677914,-2.4000693163771847
1756899691.005427,1.212189117677914,-2.385199925915115
1756899691.0058825,1.212189117677914,-2.364754514029769
1756899691.007856,1.212189117677914,-2.3545318080870965
1756899691.0100064,1.212189117677914,-2.348026449759941
1756899691.0119095,1.212189117677914,-2.3266517009707157
1756899691.016194,1.212189117677914,-2.2913368986233005
1756899691.0163062,1.212189117677914,-2.2736794974495926
1756899691.0197008,1.212189117677914,-2.2987715938543354
1756899691.0199933,1.212189117677914,-2.350814460471579
1756899691.0213597,1.212189117677914,-2.387987936626753
1756899691.0215592,0.9707490012579416,-2.387987936626753
1756899691.024536,0.9707490012579416,-2.3870585997228737
1756899691.0255551,0.9707490012579416,-2.3703305354530455
1756899691.0275085,0.9707490012579416,-2.3684718616452867
1756899691.0295084,0.9707490012579416,-2.3917052842422706
1756899691.0312188,0.9707490012579416,-2.414938706839254
1756899691.0336194,0.9707490012579416,-2.4158680437431337
1756899691.0354152,0.9707490012579416,-2.393563958050029
1756899691.037357,0.9707490012579416,-2.3628958402220106
1756899691.0393677,0.9707490012579416,-2.3396624176250267
1756899691.041355,0.9707490012579416,-2.3285103747784746
1756899691.043206,0.9707490012579416,-2.3294397116823538
1756899691.051743,0.9707490012579416,-2.3368744069133887
1756899691.0519967,0.9707490012579416,-2.3452384390483028
1756899691.0521202,0.9707490012579416,-2.350814460471579
1756899691.0522387,0.9707490012579416,-2.3582491557026137
1756899691.0528457,0.9707490012579416,-2.372189209260804
1756899691.054943,0.9707490012579416,-2.3861292628189945
1756899691.056888,0.9707490012579416,-2.3889172735306325
1756899691.0589795,0.9707490012579416,-2.3814825782995976
1756899691.063236,0.9707490012579416,-2.3786945675879596
1756899691.069007,0.9707490012579416,-2.3917052842422706
1756899691.0691133,0.9707490012579416,-2.411221359223737
1756899691.0702035,0.9707490012579416,-2.411221359223737
1756899691.0704513,0.9707490012579416,-2.3833412521073565
1756899691.0704992,0.9707490012579416,-2.350814460471579
1756899691.0729856,0.9707490012579416,-2.343379765240544
1756899691.0743918,0.9707490012579416,-2.364754514029769
1756899691.0765371,0.9707490012579416,-2.3870585997228737
1756899691.078307,0.9707490012579416,-2.374977219972442
1756899691.0802746,0.9707490012579416,-2.3257223640668365
1756899691.0822637,0.9707490012579416,-2.2681034760263166
1756899691.084343,0.9707490012579416,-2.2374353581982978
1756899691.0861003,0.7060159608048735,-2.2374353581982978
1756899691.0863268,0.7060159608048735,-2.245799390333212
1756899691.088208,0.7060159608048735,-2.2755381712573515
1756899691.0902326,0.7060159608048735,-2.2978422569504557
1756899691.0921793,0.7060159608048735,-2.2969129200465765
1756899691.0940878,0.7060159608048735,-2.2783261819689895
1756899691.0961294,0.7060159608048735,-2.264386128410799
1756899691.0980527,0.7060159608048735,-2.2708914867379546
1756899691.10006,0.7060159608048735,-2.2894782248155416
1756899691.101989,0.7060159608048735,-2.295983583142697
1756899691.1040113,0.7060159608048735,-2.2736794974495926
1756899691.1058953,0.7060159608048735,-2.2355766843905394
1756899691.1077988,0.7060159608048735,-2.2067672403702794
1756899691.1097636,0.7060159608048735,-2.1993325451392445
1756899691.1117697,0.7060159608048735,-2.2095552510819174
1756899691.1140726,0.7060159608048735,-2.224424641543987
1756899691.1157174,0.7060159608048735,-2.2439407165254535
1756899691.1176882,0.7060159608048735,-2.2708914867379546
1756899691.1196537,0.7060159608048735,-2.2969129200465765
1756899691.1215775,0.7060159608048735,-2.3071356259892495
1756899691.1236117,0.7060159608048735,-2.3006302676620938
1756899691.126124,0.7060159608048735,-2.2969129200465765
1756899691.1274984,0.7060159608048735,-2.3127116474125256
1756899691.1301875,0.7060159608048735,-2.3424504283366647
1756899691.1314318,0.7060159608048735,-2.359178492606493
1756899691.1333911,0.7060159608048735,-2.350814460471579
1756899691.135427,0.7060159608048735,-2.3285103747784746
1756899691.1374826,0.7060159608048735,-2.316428995028043
1756899691.140499,0.7060159608048735,-2.3201463426435605
1756899691.1413257,0.7060159608048735,-2.3257223640668365
1756899691.1434317,0.7060159608048735,-2.3210756795474397
1756899691.14589,0.7060159608048735,-2.3015596045659734
1756899691.1472638,0.7060159608048735,-2.27739684506511
1756899691.1492968,0.7060159608048735,-2.2578807700836436
1756899691.151181,0.7060159608048735,-2.2467287272370915
1756899691.1531706,0.7060159608048735,-2.2439407165254535
1756899691.1562097,0.7060159608048735,-2.2523047486603676
1756899691.157026,0.7060159608048735,-2.2755381712573515
1756899691.1594296,0.7060159608048735,-2.3108529736047667
1756899691.1608942,0.7060159608048735,-2.356390481894855
1756899691.163993,0.7060159608048735,-2.4047160008965816
1756899691.1644144,0.4242611681737739,-2.4047160008965816
1756899691.164815,0.4242611681737739,-2.4493241722827905
1756899691.1670225,0.4242611681737739,-2.4892856591496026
1756899691.1687226,0.4242611681737739,-2.522741787689259
1756899691.17091,0.4242611681737739,-2.547833884094002
1756899691.1726928,0.4242611681737739,-2.561773937652192
1756899691.1746004,0.4242611681737739,-2.563632611459951
1756899691.1767106,0.4242611681737739,-2.558985926940554
1756899691.1786172,0.4242611681737739,-2.548763220997881
1756899691.1806474,0.4242611681737739,-2.5292471460164148
1756899691.1834772,0.4242611681737739,-2.498579028188396
1756899691.184453,0.4242611681737739,-2.4679109103603776
1756899691.1867962,0.4242611681737739,-2.458617541321584
1756899691.1884184,0.4242611681737739,-2.4790629532069297
1756899691.1903503,0.4242611681737739,-2.515307092458224
1756899691.192359,0.4242611681737739,-2.541328525766846
1756899691.1964493,0.4242611681737739,-2.546904547190122
1756899691.1968076,0.4242611681737739,-2.547833884094002
1756899691.1985023,0.4242611681737739,-2.565491285267709
1756899691.20039,0.4242611681737739,-2.603594098326763
1756899691.2033613,0.4242611681737739,-2.649131606616851
1756899691.2043931,0.4242611681737739,-2.689093093483663
1756899691.2063427,0.4242611681737739,-2.717902537503923
1756899691.2081146,0.4242611681737739,-2.735559938677631
1756899691.2100954,0.4242611681737739,-2.740206623197028
1756899691.212086,0.4242611681737739,-2.734630601773752
1756899691.2140002,0.4242611681737739,-2.729983917254355
1756899691.2160249,0.4242611681737739,-2.73741861248539
1756899691.217863,0.4242611681737739,-2.753217339851339
1756899691.2199144,0.4242611681737739,-2.759722698178494
1756899691.2218287,0.4242611681737739,-2.743923970812545
1756899691.2238443,0.4242611681737739,-2.716973200600044
1756899691.2257626,0.4242611681737739,-2.698386462522457
1756899691.2281969,0.4242611681737739,-2.696527788714698
1756899691.2293882,0.20073868562541355,-2.696527788714698
1756899691.230668,0.20073868562541355,-2.702103810137974
1756899691.2320404,0.20073868562541355,-2.705821157753492
1756899691.234212,0.20073868562541355,-2.709538505369009
1756899691.2367644,0.20073868562541355,-2.715114526792285
1756899691.237632,0.20073868562541355,-2.72254922202332
1756899691.2395024,0.20073868562541355,-2.724407895831079
1756899691.2415817,0.20073868562541355,-2.724407895831079
1756899691.2434497,0.20073868562541355,-2.733701264869872
1756899691.245495,0.20073868562541355,-2.753217339851339
1756899691.247412,0.20073868562541355,-2.762510708890132
1756899691.2492995,0.20073868562541355,-2.742994633908666
1756899691.251251,0.20073868562541355,-2.703033147041854
1756899691.2532322,0.20073868562541355,-2.677011713733232
1756899691.255215,0.20073868562541355,-2.688163756579784
1756899691.2571723,0.20073868562541355,-2.721619885119441
1756899691.2592847,0.20073868562541355,-2.734630601773752
1756899691.261834,0.20073868562541355,-2.7076798315612502
1756899691.2631538,0.20073868562541355,-2.661212986367283
1756899691.2669878,0.20073868562541355,-2.637979563770299
1756899691.2674656,0.20073868562541355,-2.654707628040127
1756899691.2719438,0.20073868562541355,-2.683517072060387
1756899691.2721202,0.20073868562541355,-2.682587735156508
1756899691.2729297,0.20073868562541355,-2.6342622161547817
1756899691.274958,0.20073868562541355,-2.566420622171589
1756899691.2768753,0.20073868562541355,-2.5208831138815007
1756899691.2790582,0.20073868562541355,-2.514377755554345
1756899691.280879,0.20073868562541355,-2.5264591353047767
1756899691.282751,0.20073868562541355,-2.514377755554345
1756899691.2847297,0.20073868562541355,-2.462334888937101
1756899691.286742,0.20073868562541355,-2.395422631857788
1756899691.2886446,0.20073868562541355,-2.3526731342793377
1756899691.290624,0.20073868562541355,-2.350814460471579
1756899691.2922962,-0.011473290541491724,-2.350814460471579
1756899691.292704,-0.011473290541491724,-2.3712598723569247
1756899691.2955043,-0.011473290541491724,-2.3842705890112357
1756899691.2967415,-0.011473290541491724,-2.37776523068408
1756899691.3002188,-0.011473290541491724,-2.36382517712589
1756899691.3015387,-0.011473290541491724,-2.364754514029769
1756899691.3024251,-0.011473290541491724,-2.3917052842422706
1756899691.3044822,-0.011473290541491724,-2.430737434205203
1756899691.3063667,-0.011473290541491724,-2.4604762151293427
1756899691.3083858,-0.011473290541491724,-2.4679109103603776
1756899691.3103976,-0.011473290541491724,-2.462334888937101
1756899691.3122888,-0.011473290541491724,-2.46419356274486
1756899691.3142126,-0.011473290541491724,-2.485568311534085
1756899691.3161092,-0.011473290541491724,-2.517165766265983
1756899691.3182025,-0.011473290541491724,-2.541328525766846
1756899691.3201702,-0.011473290541491724,-2.5496925579017606
1756899691.3220415,-0.011473290541491724,-2.5524805686133987
1756899691.3240075,-0.011473290541491724,-2.5608446007483128
1756899691.326218,-0.011473290541491724,-2.571996643594865
1756899691.328072,-0.011473290541491724,-2.571996643594865
1756899691.329975,-0.011473290541491724,-2.5580565900366747
1756899691.3319747,-0.011473290541491724,-2.543187199574605
1756899691.3340745,-0.011473290541491724,-2.53575250434357
1756899691.3359258,-0.011473290541491724,-2.5208831138815007
1756899691.337934,-0.011473290541491724,-2.475345605591412
1756899691.3399055,-0.011473290541491724,-2.396351968761667
1756899691.3463087,-0.011473290541491724,-2.314570321220284
1756899691.3465514,-0.011473290541491724,-2.261598117699161
1756899691.34675,-0.011473290541491724,-2.2383646951021774
1756899691.3476737,-0.011473290541491724,-2.2160606094090727
1756899691.3497643,-0.011473290541491724,-2.1770284594461398
1756899691.3517072,-0.011473290541491724,-2.1259149297327755
1756899691.3538015,-0.011473290541491724,-2.0840947690582046
1756899691.3556018,-0.011473290541491724,-2.0608613464612207
1756899691.357588,-0.011473290541491724,-2.0497093036146685
1756899691.3597252,-0.011473290541491724,-2.0450626190952716
1756899691.3615165,-0.011473290541491724,-2.0497093036146685
1756899691.363513,-0.2451864273543315,-2.0497093036146685
1756899691.36358,-0.2451864273543315,-2.0571439988457034
1756899691.3658674,-0.2451864273543315,-2.050638640518548
1756899691.367252,-0.2451864273543315,-2.0255465441138054
1756899691.3692894,-0.2451864273543315,-2.003242458420701
1756899691.3712406,-0.2451864273543315,-2.0143945012672533
1756899691.3733172,-0.2451864273543315,-2.0524973143263066
1756899691.3753717,-0.2451864273543315,-2.0785187476349285
1756899691.377166,-0.2451864273543315,-2.053426651230186
1756899691.379129,-0.2451864273543315,-1.987443731054752
1756899691.381079,-0.2451864273543315,-1.9279661692064733
1756899691.3831582,-0.2451864273543315,-1.9065914204172483
1756899691.3862538,-0.2451864273543315,-1.9038034097056102
1756899691.387198,-0.2451864273543315,-1.8814993240125055
1756899691.3893304,-0.2451864273543315,-1.8331738050107793
1756899691.391094,-0.2451864273543315,-1.7867069598168115
1756899691.39315,-0.2451864273543315,-1.7681202217392245
1756899691.3951087,-0.2451864273543315,-1.7736962431625005
1756899691.3970594,-0.2451864273543315,-1.7811309383935354
1756899691.398909,-0.2451864273543315,-1.7820602752974148
1756899691.405015,-0.2451864273543315,-1.7885656336245703
1756899691.4064746,-0.2451864273543315,-1.8127283931254334
1756899691.406957,-0.2451864273543315,-1.843396510953452
1756899691.4097266,-0.2451864273543315,-1.864771259742677
1756899691.4101667,-0.2451864273543315,-1.8703472811659534
1756899691.410601,-0.2451864273543315,-1.8731352918775914
1756899691.4127069,-0.2451864273543315,-1.8870753454357816
1756899691.4158888,-0.2451864273543315,-1.9065914204172483
1756899691.4172966,-0.2451864273543315,-1.9196021370715592
1756899691.4184618,-0.2451864273543315,-1.9223901477831973
1756899691.4207733,-0.2451864273543315,-1.9205314739754387
1756899691.4242573,-0.2451864273543315,-1.9251781584948353
1756899691.4244702,-0.2451864273543315,-1.9381888751491463
1756899691.426303,-0.2451864273543315,-1.9539876025150953
1756899691.4288578,-0.2451864273543315,-1.9604929608422508
1756899691.430279,-0.2451864273543315,-1.9539876025150953
1756899691.4322069,-0.525373427021665,-1.9539876025150953
1756899691.4333684,-0.525373427021665,-1.9381888751491463
1756899691.434585,-0.525373427021665,-1.9261074953987147
1756899691.4364655,-0.525373427021665,-1.9251781584948353
1756899691.4483235,-0.525373427021665,-1.9354008644375083
1756899691.4485571,-0.525373427021665,-1.9465529072840604
1756899691.448756,-0.525373427021665,-1.955846276322854
1756899691.448954,-0.525373427021665,-1.9697863298810443
1756899691.4491508,-0.525373427021665,-1.9958077631896662
1756899691.4493482,-0.525373427021665,-2.0292638917293226
1756899691.4500854,-0.525373427021665,-2.0590026726534623
1756899691.4519837,-0.525373427021665,-2.0813067583465665
1756899691.454162,-0.525373427021665,-2.0961761488086363
1756899691.4560547,-0.525373427021665,-2.1026815071357916
1756899691.458007,-0.525373427021665,-2.0933881380969983
1756899691.4599886,-0.525373427021665,-2.0627200202689795
1756899691.461734,-0.525373427021665,-2.0208998595944085
1756899691.464739,-0.525373427021665,-1.987443731054752
1756899691.465595,-0.525373427021665,-1.9632809715538888
1756899691.4679337,-0.525373427021665,-1.9307541799181114
1756899691.4695911,-0.525373427021665,-1.880569987108626
1756899691.4715044,-0.525373427021665,-1.8257391097797444
1756899691.473444,-0.525373427021665,-1.793212318143967
1756899691.475419,-0.525373427021665,-1.7894949705284495
1756899691.47744,-0.525373427021665,-1.7922829812400878
1756899691.4794345,-0.525373427021665,-1.780201601489656
1756899691.4814224,-0.525373427021665,-1.7597561896043104
1756899691.4836063,-0.525373427021665,-1.7578975157965517
1756899691.4854224,-0.525373427021665,-1.7783429276818974
1756899691.4904854,-0.525373427021665,-1.798788339567243
1756899691.490718,-0.525373427021665,-1.7950709919517258
1756899691.4912064,-0.525373427021665,-1.7709082324508625
1756899691.493238,-0.525373427021665,-1.74581613604612
1756899691.4965942,-0.525373427021665,-1.7281587348724123
1756899691.4971066,-0.525373427021665,-1.7039959753715492
1756899691.503801,-0.525373427021665,-1.6612464777930989
1756899691.5040882,-0.525373427021665,-1.6073449373680966
1756899691.5043254,-0.525373427021665,-1.5608780921741288
1756899691.5049667,-0.525373427021665,-1.5255632898267135
1756899691.5060225,-0.7699491293691696,-1.5255632898267135
1756899691.5069258,-0.7699491293691696,-1.48746047676766
1756899691.5091453,-0.7699491293691696,-1.4391349577659336
1756899691.5108223,-0.7699491293691696,-1.3935974494758454
1756899691.513108,-0.7699491293691696,-1.3731520375904995
1756899691.5147307,-0.7699491293691696,-1.3750107113982584
1756899691.5167687,-0.7699491293691696,-1.3750107113982584
1756899691.518747,-0.7699491293691696,-1.353635962609033
1756899691.5207798,-0.7699491293691696,-1.3211091709732559
1756899691.522626,-0.7699491293691696,-1.308098454318945
1756899691.5246124,-0.7699491293691696,-1.3248265185887733
1756899691.5265443,-0.7699491293691696,-1.3527066257051539
1756899691.5286157,-0.7699491293691696,-1.363858668551706
1756899691.530507,-0.7699491293691696,-1.350847951897395
1756899691.5325134,-0.7699491293691696,-1.3276145293004114
1756899691.5344298,-0.7699491293691696,-1.310886465030583
1756899691.536502,-0.7699491293691696,-1.2960170745685133
1756899691.5383089,-0.7699491293691696,-1.2727836519715294
1756899691.5403466,-0.7699491293691696,-1.2458328817590283
1756899691.54226,-0.7699491293691696,-1.231892828200838
1756899691.5443976,-0.7699491293691696,-1.2402568603357522
1756899691.5462136,-0.7699491293691696,-1.2588435984133393
1756899691.5485108,-0.7699491293691696,-1.266278293644374
1756899691.5518682,-0.7699491293691696,-1.2569849246055804
1756899691.552209,-0.7699491293691696,-1.247691555566787
1756899691.5564911,-0.7699491293691696,-1.2551262507978218
1756899691.5567527,-0.7699491293691696,-1.2746423257792883
1756899691.558308,-0.7699491293691696,-1.287653042433599
1756899691.5600922,-0.7699491293691696,-1.2802183472025643
1756899691.5622876,-0.7699491293691696,-1.2607022722210979
1756899691.5700622,-0.7699491293691696,-1.2458328817590283
1756899691.5702934,-0.7699491293691696,-1.2458328817590283
1756899691.5704982,-0.7699491293691696,-1.2560555877017012
1756899691.570701,-0.7699491293691696,-1.2737129888754088
1756899691.571824,-0.7699491293691696,-1.297875748376272
1756899691.5736785,-0.7699491293691696,-1.3248265185887733
1756899691.5740974,-1.0024304288533359,-1.3248265185887733
1756899691.575699,-1.0024304288533359,-1.3369078983392049
1756899691.57769,-1.0024304288533359,-1.3201798340693764
1756899691.579947,-1.0024304288533359,-1.279289010298685
1756899691.5816104,-1.0024304288533359,-1.2439742079512695
1756899691.5835793,-1.0024304288533359,-1.2383981865279934
1756899691.58559,-1.0024304288533359,-1.2672076305482534
1756899691.587489,-1.0024304288533359,-1.310886465030583
1756899691.590165,-1.0024304288533359,-1.3601413209361886
1756899691.5913727,-1.0024304288533359,-1.4233362303999846
1756899691.5940292,-1.0024304288533359,-1.5283513005383516
1756899691.5953188,-1.0024304288533359,-1.6937732694288763
1756899691.5972664,-1.0024304288533359,-1.9214608108793179
1756899691.6004322,-1.0024304288533359,-2.1918978499082096
1756899691.6022274,-1.0024304288533359,-2.4706989210720156
1756899691.6031597,-1.0024304288533359,-2.7132558529845263
1756899691.618464,-1.0024304288533359,-2.8870418540099654
1756899691.620622,-1.0024304288533359,-2.9920569241483324
1756899691.62088,-1.0024304288533359,-3.0478171383810935
1756899691.6248808,-1.0024304288533359,-3.0719798978819566
1756899691.6374447,-1.0024304288533359,-3.0589691812276456
1756899691.6379898,-1.0024304288533359,-2.985551565821177
1756899691.6384163,-1.0024304288533359,-2.8526563885664293
1756899691.6387472,-1.0024304288533359,-2.690022430387543
1756899691.6391656,-1.0024304288533359,-2.53575250434357
1756899691.639461,-1.0024304288533359,-2.414938706839254
1756899691.6396646,-1.0024304288533359,-2.3312983854901126
1756899691.640873,-1.0024304288533359,-2.2820435295845067
1756899691.6411862,-1.0024304288533359,-2.2569514331797644
1756899691.6413865,-1.0024304288533359,-2.2383646951021774
1756899691.6417313,-1.0024304288533359,-2.211413924889676
1756899691.642879,-1.0024304288533359,-2.1788871332538986
1756899691.6432614,-1.0024304288533359,-2.1621590689840704
1756899691.6434655,-1.0024304288533359,-2.1723817749267433
1756899691.643663,-1.0024304288533359,-2.1984032082353653
1756899691.6438594,-1.0024304288533359,-2.2067672403702794
1756899691.644414,-1.0024304288533359,-2.1844631546771747
1756899691.645893,-1.2335679057971316,-2.1844631546771747
1756899691.6463869,-1.2335679057971316,-2.1435723309064834
1756899691.6483595,-1.2335679057971316,-2.1119748761745853
1756899691.6503236,-1.2335679057971316,-2.1036108440396712
1756899691.65294,-1.2335679057971316,-2.1119748761745853
1756899691.654281,-1.2335679057971316,-2.1296322773482927
1756899691.656265,-1.2335679057971316,-2.1556537106569147
1756899691.6582508,-1.2335679057971316,-2.1863218284849335
1756899691.6602752,-1.2335679057971316,-2.214201935601314
1756899691.66218,-1.2335679057971316,-2.2337180105827805
1756899691.664125,-1.2335679057971316,-2.2532340855642468
1756899691.667766,-1.2335679057971316,-2.2839022033922656
1756899691.6681857,-1.2335679057971316,-2.3238636902590777
1756899691.6701746,-1.2335679057971316,-2.3526731342793377
1756899691.672239,-1.2335679057971316,-2.356390481894855
1756899691.6739552,-1.2335679057971316,-2.3470971128560616
1756899691.676159,-1.2335679057971316,-2.3582491557026137
1756899691.6779568,-1.2335679057971316,-2.4000693163771847
1756899691.6799054,-1.2335679057971316,-2.442818813955635
1756899691.6818545,-1.2335679057971316,-2.4502535091866697
1756899691.6867468,-1.2335679057971316,-2.4233027389741686
1756899691.6870143,-1.2335679057971316,-2.40657467470434
1756899691.687723,-1.2335679057971316,-2.4372427925323588
1756899691.689674,-1.2335679057971316,-2.4995083650922756
1756899691.6919086,-1.2335679057971316,-2.544116536478484
1756899691.6974957,-1.2335679057971316,-2.5422578626707257
1756899691.697717,-1.2335679057971316,-2.519024440073742
1756899691.6980062,-1.2335679057971316,-2.519953776977621
1756899691.6995478,-1.2335679057971316,-2.553409905517278
1756899691.701548,-1.2335679057971316,-2.588724707864693
1756899691.7040672,-1.2335679057971316,-2.595230066191849
1756899691.7054808,-1.2335679057971316,-2.574784654306503
1756899691.7073865,-1.2335679057971316,-2.554339242421157
1756899691.7093256,-1.2335679057971316,-2.551551231709519
1756899691.7113495,-1.2335679057971316,-2.563632611459951
1756899691.7133262,-1.2335679057971316,-2.588724707864693
1756899691.713944,-1.4584342108858628,-2.588724707864693
1756899691.7151814,-1.4584342108858628,-2.627756857827626
1756899691.7173965,-1.4584342108858628,-2.67979972444487
1756899691.7191978,-1.4584342108858628,-2.7262665696388373
1756899691.7211292,-1.4584342108858628,-2.746711981524183
1756899691.7238302,-1.4584342108858628,-2.7420652970047863
1756899691.7250602,-1.4584342108858628,-2.740206623197028
1756899691.7271588,-1.4584342108858628,-2.7680867303134082
1756899691.729009,-1.4584342108858628,-2.830352302873325
1756899691.7310004,-1.4584342108858628,-2.9084166027991905
1756899691.7329829,-1.4584342108858628,-2.98090488130178
1756899691.7349837,-1.4584342108858628,-3.0468878014772143
1756899691.7370026,-1.4584342108858628,-3.1203054168836832
1756899691.741284,-1.4584342108858628,-3.212309770367739
1756899691.7417235,-1.4584342108858628,-3.320112851217744
1756899691.7428186,-1.4584342108858628,-3.4353506272987837
1756899691.7447586,-1.4584342108858628,-3.550588403379823
1756899691.7477093,-1.4584342108858628,-3.664896842556984
1756899691.7486594,-1.4584342108858628,-3.7745585972147473
1756899691.75118,-1.4584342108858628,-3.8739976459298378
1756899691.7583585,-1.4584342108858628,-3.959496641086738
1756899691.758941,-1.4584342108858628,-4.032914256493207
1756899691.7591667,-1.4584342108858628,-4.105402534995797
1756899691.7593815,-1.4584342108858628,-4.177890813498386
1756899691.7604656,-1.4584342108858628,-4.248520418193217
1756899691.762449,-1.4584342108858628,-4.320079359791927
1756899691.766639,-1.4584342108858628,-4.394426312102275
1756899691.7671256,-1.4584342108858628,-4.468773264412624
1756899691.7683098,-1.4584342108858628,-4.528250826260902
1756899691.7702546,-1.4584342108858628,-4.557060270281162
1756899691.7722127,-1.4584342108858628,-4.564494965512197
1756899691.7741508,-1.4584342108858628,-4.57471767145487
1756899691.7764518,-1.4584342108858628,-4.60259777857125
1756899691.7859876,-1.1215826940995561,-4.60259777857125
1756899691.7917516,-1.1215826940995561,-4.636983244014786
1756899691.792016,-1.1215826940995561,-4.657428655900132
1756899691.7922168,-1.1215826940995561,-4.66114600351565
1756899691.7924156,-1.1215826940995561,-4.666722024938926
1756899691.7926147,-1.1215826940995561,-4.689955447535909
1756899691.7928145,-1.1215826940995561,-4.7289875974988425
1756899691.7930129,-1.1215826940995561,-4.771737095077293
1756899691.7932112,-1.1215826940995561,-4.80426388671307
1756899691.7939088,-1.1215826940995561,-4.8237799616945365
1756899691.7957726,-1.1215826940995561,-4.826567972406174
1756899691.7978747,-1.1215826940995561,-4.812627918847984
1756899691.799779,-1.1215826940995561,-4.784747811731603
1756899691.8020935,-1.1215826940995561,-4.755009030807464
1756899691.8043609,-1.1215826940995561,-4.736422292729877
1756899691.8059833,-1.1215826940995561,-4.733634282018239
1756899691.811875,-1.1215826940995561,-4.742927651057032
1756899691.8121235,-1.1215826940995561,-4.753150356999705
1756899691.812374,-1.1215826940995561,-4.747574335576429
1756899691.8134358,-1.1215826940995561,-4.716906217748411
1756899691.8156128,-1.1215826940995561,-4.672298046362202
1756899691.8173754,-1.1215826940995561,-4.643488602341942
1756899691.8195822,-1.1215826940995561,-4.644417939245821
1756899691.8231988,-1.1215826940995561,-4.656499318996253
1756899691.8236544,-1.1215826940995561,-4.640700591630304
1756899691.8285882,-1.1215826940995561,-4.587728388109181
1756899691.829114,-1.1215826940995561,-4.532897510780299
1756899691.8293269,-1.1215826940995561,-4.518028120318229
1756899691.831136,-1.1215826940995561,-4.5449788905307305
1756899691.833423,-1.1215826940995561,-4.571929660743232
1756899691.835116,-1.1215826940995561,-4.5607776178966795
1756899691.83716,-1.1215826940995561,-4.51709878341435
1756899691.83911,-1.1215826940995561,-4.477137296547538
1756899691.8482437,-1.1215826940995561,-4.464126579893227
1756899691.8485186,-1.1215826940995561,-4.467843927508744
1756899691.848729,-1.1215826940995561,-4.456691884662192
1756899691.8489358,-1.1215826940995561,-4.413013050179862
1756899691.8525178,-1.1215826940995561,-4.347030130004429
1756899691.8539846,0.7790303188316926,-4.347030130004429
1756899691.8614557,0.7790303188316926,-4.280117872925115
1756899691.861887,0.7790303188316926,-4.233651027731147
1756899691.8620937,0.7790303188316926,-4.207629594422525
1756899691.862291,0.7790303188316926,-4.1927602039604555
1756899691.8625903,0.7790303188316926,-4.17324412897899
1756899691.8627863,0.7790303188316926,-4.14350534805485
1756899691.863022,0.7790303188316926,-4.1146959040345905
1756899691.864537,0.7790303188316926,-4.104473198091918
1756899691.866499,0.7790303188316926,-4.112837230226831
1756899691.868467,0.7790303188316926,-4.122130599265625
1756899691.8726158,0.7790303188316926,-4.104473198091918
1756899691.873567,0.7790303188316926,-4.058935689801829
1756899691.8743432,0.7790303188316926,-4.0087514969923435
1756899691.876325,0.7790303188316926,-3.982730063683722
1756899691.878916,0.7790303188316926,-3.9790127160682047
1756899691.8803656,0.7790303188316926,-3.964143325606135
1756899691.8822093,0.7790303188316926,-3.9074537744694946
1756899691.8847077,0.7790303188316926,-3.817308094793197
1756899691.886259,0.7790303188316926,-3.739243794867332
1756899691.8910682,0.7790303188316926,-3.702999655616037
1756899691.8912823,0.7790303188316926,-3.700211644904399
1756899691.8920422,0.7790303188316926,-3.691847612769485
1756899691.8984437,0.7790303188316926,-3.650027452094914
1756899691.8986857,0.7790303188316926,-3.586832542631118
1756899691.898907,0.7790303188316926,-3.534789676013874
1756899691.899936,0.7790303188316926,-3.509697579609132
1756899691.902081,0.7790303188316926,-3.4976161998587
1756899691.9038591,0.7790303188316926,-3.4743827772617166
1756899691.9059956,0.7790303188316926,-3.433491953491025
1756899691.9078476,0.7790303188316926,-3.388883782104816
1756899691.9099035,0.7790303188316926,-3.3563569904690387
1756899691.9118674,0.7790303188316926,-3.334052904775934
1756899691.91383,0.7790303188316926,-3.309890145275071
1756899691.915841,0.7790303188316926,-3.2829393750625697
1756899691.918163,0.7790303188316926,-3.2643526369849827
1756899691.9198968,0.7790303188316926,-3.2606352893694655
1756899691.92401,0.7790303188316926,-3.2569179417539478
1756899691.9243116,0.7790303188316926,-3.228108497733688
1756899691.9254668,0.7790303188316926,-3.1649135882698918
1756899691.9261036,1.7165705111637934,-3.1649135882698918
1756899691.9277256,1.7165705111637934,-3.0933546466711817
1756899691.9297848,1.7165705111637934,-3.0440997907655762
1756899691.9313333,1.7165705111637934,-3.022725041976351
1756899691.9333055,1.7165705111637934,-3.0050676408026433
1756899691.9352846,1.7165705111637934,-2.969752838455228
1756899691.9372673,1.7165705111637934,-2.925144667069019
1756899691.9463634,1.7165705111637934,-2.8916885385293623
1756899691.946638,1.7165705111637934,-2.872172463547896
1756899691.9469235,1.7165705111637934,-2.85172705166255
1756899691.947145,1.7165705111637934,-2.8210589338345313
1756899691.9473443,1.7165705111637934,-2.79410816362203
1756899691.9491265,1.7165705111637934,-2.7838854576793572
1756899691.9510772,1.7165705111637934,-2.781097446967719
1756899691.9566617,1.7165705111637934,-2.764369382697891
1756899691.95694,1.7165705111637934,-2.7290545803504753
1756899691.957139,1.7165705111637934,-2.699315799426336
1756899691.9588678,1.7165705111637934,-2.698386462522457
1756899691.960838,1.7165705111637934,-2.717902537503923
1756899691.9628289,1.7165705111637934,-2.7234785589271993
1756899691.9673617,1.7165705111637934,-2.692810441099181
1756899691.9681897,1.7165705111637934,-2.635191553058661
1756899691.971862,1.7165705111637934,-2.577572665018141
1756899691.9720914,1.7165705111637934,-2.537611178151329
1756899691.9726343,1.7165705111637934,-2.512519081746586
1756899691.9745872,1.7165705111637934,-2.488356322245723
1756899691.9765491,1.7165705111637934,-2.4549001937060666
1756899691.9785216,1.7165705111637934,-2.412150696127616
1756899691.9804869,1.7165705111637934,-2.3684718616452867
1756899691.9825327,1.7165705111637934,-2.340591754528906
1756899691.9868271,1.7165705111637934,-2.337803743817268
1756899691.9870696,1.7165705111637934,-2.3545318080870965
1756899691.9883945,1.7165705111637934,-2.3610371664142518
1756899691.990652,1.7165705111637934,-2.3368744069133887
1756899691.9923167,1.7165705111637934,-2.2894782248155416
1756899691.99429,1.7165705111637934,-2.2495167379487295
1756899691.995145,2.0220661686747787,-2.2495167379487295
1756899691.996283,2.0220661686747787,-2.2337180105827805
1756899691.9982076,2.0220661686747787,-2.2216366308323487
1756899692.0001276,2.0220661686747787,-2.1770284594461398
1756899692.0029206,2.0220661686747787,-2.1017521702319124
1756899692.0041826,2.0220661686747787,-2.0469212929030305
1756899692.0123434,2.0220661686747787,-2.0608613464612207
1756899692.01265,2.0220661686747787,-2.1231269190211375
1756899692.013183,2.0220661686747787,-2.1575123844646735
1756899692.0133953,2.0220661686747787,-2.1147628868862234
1756899692.0140276,2.0220661686747787,-2.0329812393448403
1756899692.0158615,2.0220661686747787,-1.9948784262857868
1756899692.0180092,2.0220661686747787,-2.0274052179215643
1756899692.019864,2.0220661686747787,-2.0710840524038936
1756899692.0219207,2.0220661686747787,-2.0524973143263066
1756899692.0249026,2.0220661686747787,-1.974433014400441
1756899692.0258482,2.0220661686747787,-1.9075207573211277
1756899692.0277984,2.0220661686747787,-1.898227388282334
1756899692.029575,2.0220661686747787,-1.9186728001676798
1756899692.0389106,2.0220661686747787,-1.9149554525521624
1756899692.0391648,2.0220661686747787,-1.8842873347241436
1756899692.0397165,2.0220661686747787,-1.8712766180698326
1756899692.0399227,2.0220661686747787,-1.895439377570696
1756899692.04013,2.0220661686747787,-1.9196021370715592
1756899692.041407,2.0220661686747787,-1.8963687144745751
1756899692.0459504,2.0220661686747787,-1.8359618157224173
1756899692.0462246,2.0220661686747787,-1.796000328855605
1756899692.0473485,2.0220661686747787,-1.809011045509916
1756899692.049302,2.0220661686747787,-1.8424671740495728
1756899692.0512562,2.0220661686747787,-1.843396510953452
1756899692.054786,2.0220661686747787,-1.8015763502788813
1756899692.0551727,2.0220661686747787,-1.7597561896043104
1756899692.0598006,2.0220661686747787,-1.7532508312771549
1756899692.0602536,2.0220661686747787,-1.7671908848353453
1756899692.0610647,2.0220661686747787,-1.7699788955469833
1756899692.063033,2.0220661686747787,-1.7504628205655168
1756899692.0650036,2.0220661686747787,-1.7318760824879298
1756899692.0662522,1.5490406344642207,-1.7318760824879298
1756899692.066969,1.5490406344642207,-1.7337347562956884
1756899692.0689092,1.5490406344642207,-1.7439574622383613
1756899692.0708816,1.5490406344642207,-1.7411694515267233
1756899692.0728517,1.5490406344642207,-1.7225827134491363
1756899692.077502,1.5490406344642207,-1.7049253122754284
1756899692.077926,1.5490406344642207,-1.695631943236635
1756899692.078766,1.5490406344642207,-1.6872679111017208
1756899692.0807269,1.5490406344642207,-1.6742571944474098
1756899692.08287,1.5490406344642207,-1.6686811730241338
1756899692.0887184,1.5490406344642207,-1.6789038789668067
1756899692.088935,1.5490406344642207,-1.698419953948273
1756899692.0891318,1.5490406344642207,-1.7039959753715492
1756899692.0905385,1.5490406344642207,-1.6919145956211177
1756899692.0925128,1.5490406344642207,-1.6844799003900828
1756899692.0944717,1.5490406344642207,-1.6965612801405143
1756899692.096419,1.5490406344642207,-1.7132893444103428
1756899692.098446,1.5490406344642207,-1.7123600075064633
1756899692.100514,1.5490406344642207,-1.6863385741978414
1756899692.1023085,1.5490406344642207,-1.6565997932737022
1756899692.104271,1.5490406344642207,-1.6417304028116326
1756899692.108666,1.5490406344642207,-1.6352250444844771
1756899692.1089206,1.5490406344642207,-1.61663830640689
1756899692.1102016,1.5490406344642207,-1.5868995254827507
1756899692.112641,1.5490406344642207,-1.5645954397896462
1756899692.1141212,1.5490406344642207,-1.5608780921741288
1756899692.116082,1.5490406344642207,-1.5645954397896462
1756899692.118039,1.5490406344642207,-1.5543727338469733
1756899692.1200156,1.5490406344642207,-1.5255632898267135
1756899692.1219926,1.5490406344642207,-1.493036498190936
1756899692.123929,1.5490406344642207,-1.4763084339211077
1756899692.127166,1.5490406344642207,-1.481884455344384
1756899692.127818,1.5490406344642207,-1.5051178779413676
1756899692.1300015,1.5490406344642207,-1.5311393112499896
1756899692.1319828,1.5490406344642207,-1.5460087017120592
1756899692.1339571,1.5490406344642207,-1.5422913540965417
1756899692.136035,1.5490406344642207,-1.532068648153869
1756899692.137384,0.5828322279375406,-1.532068648153869
1756899692.1378798,0.5828322279375406,-1.5339273219616276
1756899692.139933,0.5828322279375406,-1.5487967124236972
1756899692.147773,0.5828322279375406,-1.5618074290780082
1756899692.148048,0.5828322279375406,-1.5525140600392147
1756899692.148419,0.5828322279375406,-1.5255632898267135
1756899692.1486368,0.5828322279375406,-1.500471193421971
1756899692.1494908,0.5828322279375406,-1.48746047676766
1756899692.1517212,0.5828322279375406,-1.474449760113349
1756899692.153429,0.5828322279375406,-1.445640316093089
1756899692.1584413,0.5828322279375406,-1.4093961768417944
1756899692.1586611,0.5828322279375406,-1.3889507649564485
1756899692.15933,0.5828322279375406,-1.392668112571966
1756899692.1612625,0.5828322279375406,-1.4038201554185181
1756899692.1641817,0.5828322279375406,-1.398244133995242
1756899692.1651945,0.5828322279375406,-1.374081374494379
1756899692.1672397,0.5828322279375406,-1.3573533102245505
1756899692.1691198,0.5828322279375406,-1.369434689974982
1756899692.1710818,0.5828322279375406,-1.3991734708991215
1756899692.1763835,0.5828322279375406,-1.424265567303864
1756899692.1766431,0.5828322279375406,-1.42984158872714
1756899692.1793518,0.5828322279375406,-1.4261242411116226
1756899692.1833146,0.5828322279375406,-1.427053578015502
1756899692.1839118,0.5828322279375406,-1.42984158872714
1756899692.184278,0.5828322279375406,-1.416830872072829
1756899692.1876757,0.5828322279375406,-1.379657395917655
1756899692.1878982,0.5828322279375406,-1.332261213819808
1756899692.1887803,0.5828322279375406,-1.2997344221840308
1756899692.190752,0.5828322279375406,-1.2830063579142024
1756899692.1927197,0.5828322279375406,-1.2653489567404947
1756899692.1947596,0.5828322279375406,-1.2300341543930793
1756899692.1983657,0.5828322279375406,-1.1844966461029909
1756899692.1986792,0.5828322279375406,-1.1538285282749723
1756899692.2008336,0.5828322279375406,-1.1556872020827311
1756899692.2025795,0.5828322279375406,-1.1863553199107497
1756899692.2045276,0.5828322279375406,-1.218882111546527
1756899692.206251,0.2054420645167117,-1.218882111546527
1756899692.206513,0.2054420645167117,-1.2291048174891999
1756899692.2083876,0.2054420645167117,-1.2086594056038542
1756899692.2113683,0.2054420645167117,-1.1742739401603182
1756899692.2122436,0.2054420645167117,-1.1556872020827311
1756899692.2143896,0.2054420645167117,-1.1668392449292833
1756899692.216273,0.2054420645167117,-1.1891433306223878
1756899692.218255,0.2054420645167117,-1.1910020044301464
1756899692.2202191,0.2054420645167117,-1.1640512342176452
1756899692.2220778,0.2054420645167117,-1.1371004640051439
1756899692.2240229,0.2054420645167117,-1.1454644961400582
1756899692.2260947,0.2054420645167117,-1.1854259830068703
1756899692.2281678,0.2054420645167117,-1.2198114484504063
1756899692.230226,0.2054420645167117,-1.216094100834889
1756899692.232155,0.2054420645167117,-1.1882139937185083
1756899692.2352605,0.2054420645167117,-1.1733446032564387
1756899692.236199,0.2054420645167117,-1.1910020044301464
1756899692.2390428,0.2054420645167117,-1.218882111546527
1756899692.239986,0.2054420645167117,-1.2253874698736824
1756899692.2427185,0.2054420645167117,-1.2058713948922162
1756899692.2440314,0.2054420645167117,-1.1835673091991117
1756899692.246074,0.2054420645167117,-1.1798499615835942
1756899692.2491791,0.2054420645167117,-1.1984366996611813
1756899692.2503233,0.2054420645167117,-1.2244581329698032
1756899692.2593708,0.2054420645167117,-1.247691555566787
1756899692.2594812,0.2054420645167117,-1.2616316091249773
1756899692.2595527,0.2054420645167117,-1.263490282932736
1756899692.2596235,0.2054420645167117,-1.2560555877017012
1756899692.2597165,0.2054420645167117,-1.2495502293745457
1756899692.2615304,0.2054420645167117,-1.2541969138939424
1756899692.2634146,0.2054420645167117,-1.2672076305482534
1756899692.266277,0.2054420645167117,-1.2774303364909263
1756899692.267727,0.2054420645167117,-1.2718543150676502
1756899692.2694466,0.2054420645167117,-1.250479566278425
1756899692.2714,0.2054420645167117,-1.2225994591620444
1756899692.273381,0.2054420645167117,-1.1984366996611813
1756899692.274239,-0.06802582244876727,-1.1984366996611813
1756899692.2753873,-0.06802582244876727,-1.1798499615835942
1756899692.277532,-0.06802582244876727,-1.1705565925448007
1756899692.279853,-0.06802582244876727,-1.1705565925448007
1756899692.299023,-0.06802582244876727,-1.1714859294486801
1756899692.2998502,-0.06802582244876727,-1.1575458758904897
1756899692.2999134,-0.06802582244876727,-1.1194430628314362
1756899692.2999618,-0.06802582244876727,-1.0729762176374686
1756899692.3000093,-0.06802582244876727,-1.0432374367133292
1756899692.3000562,-0.06802582244876727,-1.0460254474249675
1756899692.3001044,-0.06802582244876727,-1.0655415224064337
1756899692.3001502,-0.06802582244876727,-1.0646121855025545
1756899692.3001978,-0.06802582244876727,-1.0255800355396216
1756899692.3002453,-0.06802582244876727,-0.9679611474991018
1756899692.301749,-0.06802582244876727,-0.9261409868245309
1756899692.302629,-0.06802582244876727,-0.9168476177857374
1756899692.3045802,-0.06802582244876727,-0.9252116499206516
1756899692.3065474,-0.06802582244876727,-0.9214943023051342
1756899692.3085978,-0.06802582244876727,-0.8917555213809949
1756899692.310475,-0.06802582244876727,-0.8425006654753893
1756899692.3137083,-0.06802582244876727,-0.7895284619542662
1756899692.3144734,-0.06802582244876727,-0.7402736060486604
1756899692.3164952,-0.06802582244876727,-0.6984534453740896
1756899692.3204226,-0.06802582244876727,-0.6724320120654677
1756899692.3206108,-0.06802582244876727,-0.6668559906421916
1756899692.32265,-0.06802582244876727,-0.6733613489693471
1756899692.3244636,-0.06802582244876727,-0.6761493596809851
1756899692.3271368,-0.06802582244876727,-0.6705733382577089
1756899692.328436,-0.06802582244876727,-0.6752200227771057
1756899692.330309,-0.06802582244876727,-0.7003121191818482
1756899692.3323357,-0.06802582244876727,-0.736556258433143
1756899692.334194,-0.06802582244876727,-0.749566975087454
1756899692.3361533,-0.06802582244876727,-0.7254042155865907
1756899692.341664,-0.06802582244876727,-0.6817253811042612
1756899692.3419385,-0.06802582244876727,-0.6547746108917599
1756899692.3420632,-0.06802582244876727,-0.6575626216033981
1756899692.3440185,-0.06802582244876727,-0.6705733382577089
1756899692.345942,-0.06802582244876727,-0.6715026751615883
1756899692.3461862,-0.10710866133122107,-0.6715026751615883
1756899692.3478906,-0.10710866133122107,-0.6631386430266741
1756899692.3501637,-0.10710866133122107,-0.6668559906421916
1756899692.3518054,-0.10710866133122107,-0.6900894132391754
1756899692.3537564,-0.10710866133122107,-0.7161108465477972
1756899692.356125,-0.10710866133122107,-0.7263335524904702
1756899692.357903,-0.10710866133122107,-0.7254042155865907
1756899692.3600085,-0.10710866133122107,-0.7300509001059875
1756899692.3618236,-0.10710866133122107,-0.7458496274719365
1756899692.3644426,-0.10710866133122107,-0.7560723334146094
1756899692.3657537,-0.10710866133122107,-0.7439909536641779
1756899692.3682656,-0.10710866133122107,-0.7161108465477972
1756899692.3696513,-0.10710866133122107,-0.6919480870469341
1756899692.371654,-0.10710866133122107,-0.6854427287197786
1756899692.3736107,-0.10710866133122107,-0.6928774239508134
1756899692.3755715,-0.10710866133122107,-0.6965947715663309
1756899692.377622,-0.10710866133122107,-0.6863720656236579
1756899692.379497,-0.10710866133122107,-0.6622093061227948
1756899692.3820517,-0.10710866133122107,-0.6361878728141729
1756899692.3834205,-0.10710866133122107,-0.6222478192559826
1756899692.3855765,-0.10710866133122107,-0.6250358299676206
1756899692.3881197,-0.10710866133122107,-0.6361878728141729
1756899692.3900256,-0.10710866133122107,-0.6408345573335696
1756899692.392398,-0.10710866133122107,-0.6324705251986555
1756899692.3932548,-0.10710866133122107,-0.6148131240249478
1756899692.3953066,-0.10710866133122107,-0.6008730704667575
1756899692.3972144,-0.10710866133122107,-0.5971557228512401
1756899692.3991425,-0.10710866133122107,-0.5971557228512401
1756899692.4018884,-0.10710866133122107,-0.5980850597551195
1756899692.4030526,-0.10710866133122107,-0.607378428793913
1756899692.405247,-0.10710866133122107,-0.6426932311413284
1756899692.406974,-0.10710866133122107,-0.7086761513167624
1756899692.4089494,-0.10710866133122107,-0.7988218309930597
1756899692.4108949,-0.10710866133122107,-0.9047662380353059
1756899692.4129696,-0.10710866133122107,-1.0302267200590185
1756899692.4141748,-0.08885507182451628,-1.0302267200590185
1756899692.4148765,-0.08885507182451628,-1.1891433306223878
1756899692.4169724,-0.08885507182451628,-1.38709209114869
1756899692.4187212,-0.08885507182451628,-1.6036275897525791
1756899692.4207416,-0.08885507182451628,-1.7978590026633638
1756899692.422696,-0.08885507182451628,-1.9344715275336288
1756899692.4246652,-0.08885507182451628,-2.0041717953245803
1756899692.4266276,-0.08885507182451628,-2.0171825119788913
1756899692.4285862,-0.08885507182451628,-1.9920904155741488
1756899692.4305568,-0.08885507182451628,-1.9335421906297494
1756899692.432532,-0.08885507182451628,-1.8424671740495728
1756899692.4344866,-0.08885507182451628,-1.7197947027374982
1756899692.4364583,-0.08885507182451628,-1.5701714612129223
1756899692.43843,-0.08885507182451628,-1.405678829226277
1756899692.4403832,-0.08885507182451628,-1.2439742079512695
1756899692.442371,-0.08885507182451628,-1.1101496937926427
1756899692.4443195,-0.08885507182451628,-1.023721361731863
1756899692.446314,-0.08885507182451628,-0.9809718641534128
1756899692.4485211,-0.08885507182451628,-0.9577384415564288
1756899692.4501543,-0.08885507182451628,-0.9261409868245309
1756899692.452298,-0.08885507182451628,-0.8768861309189253
1756899692.4542253,-0.08885507182451628,-0.8192672428784055
1756899692.4560714,-0.08885507182451628,-0.7700123869727997
1756899692.4580953,-0.08885507182451628,-0.7412029429525397
1756899692.4600556,-0.08885507182451628,-0.7309802370098669
1756899692.462631,-0.08885507182451628,-0.7281922262982289
1756899692.4662232,-0.08885507182451628,-0.7123934989322799
1756899692.4664643,-0.08885507182451628,-0.6705733382577089
1756899692.4680536,-0.08885507182451628,-0.6176011347365858
1756899692.473225,-0.08885507182451628,-0.5878623538124466
1756899692.4734704,-0.08885507182451628,-0.594367712139602
1756899692.4739728,-0.08885507182451628,-0.6148131240249478
1756899692.47574,-0.08885507182451628,-0.6138837871210685
1756899692.4782965,-0.08885507182451628,-0.5813569954852911
1756899692.4797857,-0.08885507182451628,-0.5488302038495138
1756899692.4816673,-0.08885507182451628,-0.541395508618479
1756899692.483671,-0.08885507182451628,-0.5479008669456344
1756899692.4855957,-0.08885507182451628,-0.531172802675806
1756899692.4870884,0.040711818109578385,-0.531172802675806
1756899692.4875052,0.040711818109578385,-0.4847059574818384
1756899692.4902194,0.040711818109578385,-0.4400977860956295
1756899692.4914196,0.040711818109578385,-0.4373097753839914
1756899692.4933712,0.040711818109578385,-0.4698365670197688
1756899692.49541,0.040711818109578385,-0.5042220324633048
1756899692.4973717,0.040711818109578385,-0.5116567276943397
1756899692.499267,0.040711818109578385,-0.49957534794390807
1756899692.5012343,0.040711818109578385,-0.4884233050973558
1756899692.503276,0.040711818109578385,-0.4912113158089939
1756899692.5052257,0.040711818109578385,-0.5023633586555462
1756899692.507248,0.040711818109578385,-0.5135154015020984
1756899692.5092163,0.040711818109578385,-0.5209500967331332
1756899692.51117,0.040711818109578385,-0.5200207598292538
1756899692.5132928,0.040711818109578385,-0.5107273907904603
1756899692.5155332,0.040711818109578385,-0.49678733723227
1756899692.5172293,0.040711818109578385,-0.4921406527128732
1756899692.5190918,0.040711818109578385,-0.5070100431749429
1756899692.5219617,0.040711818109578385,-0.5367488240990822
1756899692.522853,0.040711818109578385,-0.5618409205038247
1756899692.5249312,0.040711818109578385,-0.5655582681193421
1756899692.531206,0.040711818109578385,-0.5423248455223583
1756899692.5314963,0.040711818109578385,-0.5079393800788222
1756899692.5316985,0.040711818109578385,-0.4791299360585623
1756899692.5328064,0.040711818109578385,-0.4698365670197688
1756899692.5348225,0.040711818109578385,-0.4772712622508036
1756899692.5367246,0.040711818109578385,-0.49028197890511455
1756899692.5398543,0.040711818109578385,-0.49585800032839067
1756899692.5406065,0.040711818109578385,-0.4921406527128732
1756899692.543845,0.040711818109578385,-0.4847059574818384
1756899692.5446367,0.040711818109578385,-0.4828472836740797
1756899692.5501444,0.040711818109578385,-0.49028197890511455
1756899692.5503738,0.040711818109578385,-0.5079393800788222
1756899692.5507128,0.040711818109578385,-0.528384791964168
1756899692.5526426,0.040711818109578385,-0.5404661717145995
1756899692.5543456,0.040711818109578385,-0.5376781610029615
1756899692.5546784,0.3029811839052998,-0.5376781610029615
1756899692.556298,0.3029811839052998,-0.5246674443486505
1756899692.5583615,0.3029811839052998,-0.5200207598292538
1756899692.5602827,0.3029811839052998,-0.5302434657719267
1756899692.5631356,0.3029811839052998,-0.5506888776572725
1756899692.5641866,0.3029811839052998,-0.5655582681193421
1756899692.5662525,0.3029811839052998,-0.5702049526387388
1756899692.5680792,0.3029811839052998,-0.5711342895426182
1756899692.5701487,0.3029811839052998,-0.575780974062015
1756899692.5720582,0.3029811839052998,-0.5776396478697737
1756899692.574198,0.3029811839052998,-0.5702049526387388
1756899692.5760276,0.3029811839052998,-0.5609115835999453
1756899692.577931,0.3029811839052998,-0.5664876050232215
1756899692.580196,0.3029811839052998,-0.5906503645240846
1756899692.5892208,0.3029811839052998,-0.6185304716404653
1756899692.5898209,0.3029811839052998,-0.6268945037753794
1756899692.590029,0.3029811839052998,-0.6194598085443446
1756899692.5902252,0.3029811839052998,-0.6194598085443446
1756899692.590422,0.3029811839052998,-0.6473399156607251
1756899692.591662,0.3029811839052998,-0.6938067608546928
1756899692.5947683,0.3029811839052998,-0.7263335524904702
1756899692.596568,0.3029811839052998,-0.7263335524904702
1756899692.597643,0.3029811839052998,-0.7040294667973657
1756899692.5996134,0.3029811839052998,-0.6919480870469341
1756899692.6015763,0.3029811839052998,-0.7133228358361592
1756899692.603502,0.3029811839052998,-0.7625776917417649
1756899692.6054232,0.3029811839052998,-0.8136912214551293
1756899692.6073625,0.3029811839052998,-0.8434300023792686
1756899692.6094706,0.3029811839052998,-0.8508646976103034
1756899692.6113153,0.3029811839052998,-0.8545820452258208
1756899692.6133237,0.3029811839052998,-0.8722394463995286
1756899692.6152914,0.3029811839052998,-0.9038369011314266
1756899692.6176443,0.3029811839052998,-0.9252116499206516
1756899692.6217525,0.3029811839052998,-0.9187062915934961
1756899692.6228414,0.3029811839052998,-0.8861794999577188
1756899692.6231582,0.3029811839052998,-0.847147349994786
1756899692.6250987,0.3029811839052998,-0.8201965797822848
1756899692.627069,0.3029811839052998,-0.809973873839612
1756899692.6291006,0.3029811839052998,-0.8081152000318532
1756899692.6310542,0.3029811839052998,-0.8053271893202151
1756899692.6331522,0.3029811839052998,-0.8016098417046977
1756899692.6338189,0.29615008599174775,-0.8016098417046977
1756899692.635001,0.29615008599174775,-0.799751167896939
1756899692.6370351,0.29615008599174775,-0.799751167896939
1756899692.6388645,0.29615008599174775,-0.8062565262240945
1756899692.6408684,0.29615008599174775,-0.8201965797822848
1756899692.642853,0.29615008599174775,-0.8387833178598718
1756899692.644798,0.29615008599174775,-0.8545820452258208
1756899692.647452,0.29615008599174775,-0.8620167404568556
1756899692.6487951,0.29615008599174775,-0.8685220987840111
1756899692.651976,0.29615008599174775,-0.8898968475732363
1756899692.6526017,0.29615008599174775,-0.9261409868245309
1756899692.6546557,0.29615008599174775,-0.9568091046525495
1756899692.656659,0.29615008599174775,-0.9623851260758256
1756899692.6586232,0.29615008599174775,-0.9391517034788419
1756899692.6605234,0.29615008599174775,-0.9038369011314266
1756899692.662495,0.29615008599174775,-0.8685220987840111
1756899692.6645265,0.29615008599174775,-0.8322779595327163
1756899692.6684704,0.29615008599174775,-0.7876697881465075
1756899692.6687355,0.29615008599174775,-0.7449202905680572
1756899692.6703055,0.29615008599174775,-0.7198281941633147
1756899692.672408,0.29615008599174775,-0.7161108465477972
1756899692.674918,0.29615008599174775,-0.7216868679710734
1756899692.676196,0.29615008599174775,-0.7281922262982289
1756899692.6800618,0.29615008599174775,-0.7421322798564192
1756899692.6823113,0.29615008599174775,-0.7746590714921965
1756899692.6826613,0.29615008599174775,-0.818337905974526
1756899692.684297,0.29615008599174775,-0.8527233714180621
1756899692.686157,0.29615008599174775,-0.8638754142646143
1756899692.688132,0.29615008599174775,-0.8517940345141828
1756899692.690862,0.29615008599174775,-0.828560611917199
1756899692.6920807,0.29615008599174775,-0.8090445369357325
1756899692.6940222,0.29615008599174775,-0.8053271893202151
1756899692.695933,0.29615008599174775,-0.8229845904939228
1756899692.697431,0.1878043936743436,-0.8229845904939228
1756899692.7006948,0.1878043936743436,-0.8480766868986653
1756899692.7009213,0.1878043936743436,-0.8527233714180621
1756899692.7017937,0.1878043936743436,-0.8248432643016815
1756899692.7037868,0.1878043936743436,-0.7913871357620248
1756899692.7059822,0.1878043936743436,-0.7923164726659042
1756899692.7077043,0.1878043936743436,-0.8322779595327163
1756899692.7096727,0.1878043936743436,-0.8703807725917698
1756899692.7116032,0.1878043936743436,-0.8666634249762524
1756899692.7136035,0.1878043936743436,-0.8276312750133196
1756899692.7159235,0.1878043936743436,-0.7960338202814216
1756899692.7175026,0.1878043936743436,-0.7951044833775422
1756899692.7226193,0.1878043936743436,-0.802539178608577
1756899692.722869,0.1878043936743436,-0.7876697881465075
1756899692.723486,0.1878043936743436,-0.7597896810301269
1756899692.725384,0.1878043936743436,-0.7560723334146094
1756899692.7272837,0.1878043936743436,-0.7885991250503868
1756899692.7293086,0.1878043936743436,-0.8211259166861641
1756899692.7312734,0.1878043936743436,-0.81276188455125
1756899692.734673,0.1878043936743436,-0.7700123869727997
1756899692.7374637,0.1878043936743436,-0.7458496274719365
1756899692.7377212,0.1878043936743436,-0.7783764191077139
1756899692.7391658,0.1878043936743436,-0.8397126547637512
1756899692.741116,0.1878043936743436,-0.8731687833034079
1756899692.743117,0.1878043936743436,-0.8545820452258208
1756899692.7478986,0.1878043936743436,-0.818337905974526
1756899692.7481232,0.1878043936743436,-0.8174085690706467
1756899692.748857,0.1878043936743436,-0.8527233714180621
1756899692.7512496,0.1878043936743436,-0.8833914892460808
1756899692.7562895,0.1878043936743436,-0.8759567940150459
1756899692.7565567,0.1878043936743436,-0.847147349994786
1756899692.7567558,0.1878043936743436,-0.834136633340475
1756899692.7587652,0.1878043936743436,-0.8452886761870273
1756899692.7608,0.1878043936743436,-0.847147349994786
1756899692.7628255,0.1878043936743436,-0.815549895262888
1756899692.7682943,0.1878043936743436,-0.7690830500689204
1756899692.7685692,0.1878043936743436,-0.7477083012796952
1756899692.769028,0.1878043936743436,-0.7616483548378855
1756899692.7706954,0.1878043936743436,-0.7802350929154726
1756899692.772621,0.1878043936743436,-0.768153713165041
1756899692.774422,0.1878043936743436,-0.7328389108176256
1756899692.7764218,0.1878043936743436,-0.7068174775090037
1756899692.7783952,0.1878043936743436,-0.7114641620284005
1756899692.7784936,0.20113063386635507,-0.7114641620284005
1756899692.7803624,0.20113063386635507,-0.7374855953370224
1756899692.7823064,0.20113063386635507,-0.7616483548378855
1756899692.7842822,0.20113063386635507,-0.7746590714921965
1756899692.7862475,0.20113063386635507,-0.7755884083960758
1756899692.7929215,0.20113063386635507,-0.7635070286456442
1756899692.7932034,0.20113063386635507,-0.7430616167602985
1756899692.793403,0.20113063386635507,-0.7300509001059875
1756899692.7940984,0.20113063386635507,-0.7412029429525397
1756899692.7961235,0.20113063386635507,-0.770941723876679
1756899692.7980468,0.20113063386635507,-0.7885991250503868
1756899692.7999954,0.20113063386635507,-0.7737297345883172
1756899692.8023295,0.20113063386635507,-0.736556258433143
1756899692.804003,0.20113063386635507,-0.7123934989322799
1756899692.8087378,0.20113063386635507,-0.7198281941633147
1756899692.832281,0.20113063386635507,-0.7421322798564192
1756899692.8345952,0.20113063386635507,-0.7477083012796952
1756899692.8348494,0.20113063386635507,-0.7263335524904702
1756899692.8350492,0.20113063386635507,-0.7003121191818482
1756899692.835256,0.20113063386635507,-0.6910187501430547
1756899692.8354516,0.20113063386635507,-0.6993827822779689
1756899692.8356488,0.20113063386635507,-0.6975241084702102
1756899692.8358445,0.20113063386635507,-0.6696440013538296
1756899692.8360405,0.20113063386635507,-0.6278238406792588
1756899692.8362353,0.20113063386635507,-0.6027317442745163
1756899692.8364322,0.20113063386635507,-0.6129544502171891
1756899692.8371131,0.04731894559973533,-0.6129544502171891
1756899692.8384109,0.04731894559973533,-0.6417638942374491
1756899692.8404112,0.04731894559973533,-0.6557039477956393
1756899692.8406165,0.04731894559973533,-0.6399052204296903
1756899692.8408144,0.04731894559973533,-0.6138837871210685
1756899692.8410103,0.04731894559973533,-0.6129544502171891
1756899692.841206,0.04731894559973533,-0.6426932311413284
1756899692.8414018,0.04731894559973533,-0.6752200227771057
1756899692.844153,0.04731894559973533,-0.6752200227771057
1756899692.8452046,0.04731894559973533,-0.6501279263723632
1756899692.847155,0.04731894559973533,-0.6352585359102936
1756899692.853404,0.04731894559973533,-0.6594212954111568
1756899692.8536613,0.04731894559973533,-0.7012414560857276
1756899692.853859,0.04731894559973533,-0.7263335524904702
1756899692.8587165,0.04731894559973533,-0.7226162048749527
1756899692.8641214,0.04731894559973533,-0.7198281941633147
1756899692.8644056,0.04731894559973533,-0.7412029429525397
1756899692.8646052,0.04731894559973533,-0.7728003976844378
1756899692.8648722,0.04731894559973533,-0.7765177452999552
1756899692.8687465,0.04731894559973533,-0.7449202905680572
1756899692.8689508,0.04731894559973533,-0.7105348251245212
1756899692.869147,0.04731894559973533,-0.7096054882206418
1756899692.870741,0.04731894559973533,-0.733768247721505
1756899692.872656,0.04731894559973533,-0.7412029429525397
1756899692.89003,0.04731894559973533,-0.7086761513167624
1756899692.8902817,0.04731894559973533,-0.6594212954111568
1756899692.8904805,0.04731894559973533,-0.6296825144870174
1756899692.8906767,0.04731894559973533,-0.6250358299676206
1756899692.8908734,0.04731894559973533,-0.6203891454482239
1756899692.89107,0.04731894559973533,-0.6027317442745163
1756899692.891266,0.04731894559973533,-0.5850743431008085
1756899692.891462,0.04731894559973533,-0.5794983216775323
1756899692.891688,0.04731894559973533,-0.5692756157348595
1756899692.8923187,0.04731894559973533,-0.528384791964168
1756899692.894348,0.04731894559973533,-0.4689072301158894
1756899692.8966296,0.04731894559973533,-0.4400977860956295
1756899692.8983135,0.04731894559973533,-0.47448325153916554
1756899692.9002836,0.04731894559973533,-0.541395508618479
1756899692.9022408,0.04731894559973533,-0.575780974062015
1756899692.9045997,0.04731894559973533,-0.5525475514650312
1756899692.9061887,0.04731894559973533,-0.5088687169827016
1756899692.9071352,-0.08997492394149204,-0.5088687169827016
1756899692.908157,-0.08997492394149204,-0.5005046848477874
1756899692.910145,-0.08997492394149204,-0.5395368348107202
1756899692.9119709,-0.08997492394149204,-0.5813569954852911
1756899692.9140897,-0.08997492394149204,-0.5794983216775323
1756899692.922587,-0.08997492394149204,-0.531172802675806
1756899692.9228206,-0.08997492394149204,-0.47169524082752745
1756899692.9230163,-0.08997492394149204,-0.4363804384801121
1756899692.9232132,-0.08997492394149204,-0.4363804384801121
1756899692.925002,-0.08997492394149204,-0.4633312086926133
1756899692.9258993,-0.08997492394149204,-0.5032926955594255
1756899692.948008,-0.08997492394149204,-0.5376781610029615
1756899692.948571,-0.08997492394149204,-0.5534768883689105
1756899692.9499192,-0.08997492394149204,-0.5432541824262377
1756899692.9501235,-0.08997492394149204,-0.5181620860214952
1756899692.9503913,-0.08997492394149204,-0.49585800032839067
1756899692.95059,-0.08997492394149204,-0.4884233050973558
1756899692.9507964,-0.08997492394149204,-0.4930699896167526
1756899692.9509935,-0.08997492394149204,-0.5014340217516667
1756899692.9517157,-0.08997492394149204,-0.5060807062710635
1756899692.9519176,-0.08997492394149204,-0.5005046848477874
1756899692.9521146,-0.08997492394149204,-0.48377662057795906
1756899692.9523122,-0.08997492394149204,-0.46797789321201005
1756899692.9525082,-0.08997492394149204,-0.47076590392364814
1756899692.956143,-0.08997492394149204,-0.5042220324633048
1756899692.95982,-0.08997492394149204,-0.5488302038495138
1756899692.9600587,-0.08997492394149204,-0.5674169419271008
1756899692.960258,-0.08997492394149204,-0.5386074979068409
1756899692.9611025,-0.08997492394149204,-0.4847059574818384
1756899692.9630806,-0.08997492394149204,-0.4456738075189056
1756899692.9651084,-0.08997492394149204,-0.43916844919175013
1756899692.9671657,-0.08997492394149204,-0.4456738075189056
1756899692.9691205,-0.08997492394149204,-0.43266309086459465
1756899692.9709318,-0.08997492394149204,-0.3964189516132999
1756899692.973061,-0.08997492394149204,-0.3592454754581258
1756899692.974682,-0.20397586944962373,-0.3592454754581258
1756899692.97497,-0.20397586944962373,-0.34437608499605615
1756899692.977874,-0.20397586944962373,-0.35459879093872904
1756899692.978859,-0.20397586944962373,-0.3750442028240748
1756899692.9863183,-0.20397586944962373,-0.3880549194783857
1756899692.9868402,-0.20397586944962373,-0.3927016039977825
1756899692.989073,-0.20397586944962373,-0.39734828851717924
1756899692.99725,-0.20397586944962373,-0.4103590051714902
1756899692.9983654,-0.20397586944962373,-0.42894574324907725
1756899693.0004823,-0.20397586944962373,-0.43452176467235337
1756899693.0013516,-0.20397586944962373,-0.41593502659476633
1756899693.0024695,-0.20397586944962373,-0.3843375718628683
1756899693.0026712,-0.20397586944962373,-0.36760950759303995
1756899693.0028756,-0.20397586944962373,-0.3824788980551096
1756899693.0030742,-0.20397586944962373,-0.4103590051714902
1756899693.00327,-0.20397586944962373,-0.4075709944598521
1756899693.0043707,-0.20397586944962373,-0.3629628230736432
1756899693.006294,-0.20397586944962373,-0.31835465168743426
1756899693.019629,-0.20397586944962373,-0.32207199930295166
1756899693.01986,-0.20397586944962373,-0.3722561921124367
1756899693.0201328,-0.20397586944962373,-0.4140763527870076
1756899693.0205169,-0.20397586944962373,-0.4038536468443347
1756899693.0207202,-0.20397586944962373,-0.3592454754581258
1756899693.0209188,-0.20397586944962373,-0.33508271595726263
1756899693.0211165,-0.20397586944962373,-0.35459879093872904
1756899693.022761,-0.20397586944962373,-0.38154956115123023
1756899693.0240686,-0.20397586944962373,-0.3694681814007987
1756899693.0259926,-0.20397586944962373,-0.320213325495193
1756899693.0312276,-0.20397586944962373,-0.2802518386283808
1756899693.0319946,-0.20397586944962373,-0.28118117553226013
1756899693.052076,-0.34798885169270566,-0.28118117553226013
1756899693.0590694,-0.34798885169270566,-0.30534393503312335
1756899693.0680964,-0.34798885169270566,-0.31277863026415814
1756899693.0782304,-0.34798885169270566,-0.2960505659943298
1756899693.079064,-0.34798885169270566,-0.2839691862438982
1756899693.080285,-0.34798885169270566,-0.2960505659943298
1756899693.102361,-0.34798885169270566,-0.3192839885913136
1756899693.1049483,-0.34798885169270566,-0.32207199930295166
1756899693.105384,-0.34798885169270566,-0.3006972505137266
1756899693.1055856,-0.34798885169270566,-0.27746382791674273
1756899693.105783,-0.34798885169270566,-0.2802518386283808
1756899693.1059787,-0.34798885169270566,-0.3118492933602788
1756899693.1061754,-0.34798885169270566,-0.3490227695154529
1756899693.1063726,-0.34798885169270566,-0.37039751830467804
1756899693.1065688,-0.34798885169270566,-0.37411486592019544
1756899693.106764,-0.34798885169270566,-0.37132685520855735
1756899693.1069598,-0.34798885169270566,-0.37132685520855735
1756899693.1071582,-0.34798885169270566,-0.3806202242473509
1756899693.1074092,-0.34798885169270566,-0.3917722670939031
1756899693.107607,-0.34798885169270566,-0.3945602778055412
1756899693.1078036,-0.34798885169270566,-0.38340823495898896
1756899693.107999,-0.34798885169270566,-0.3611041492658845
1756899693.1082225,-0.34798885169270566,-0.33880006357278003
1756899693.10843,-0.34798885169270566,-0.3276480207262278
1756899693.1086278,-0.34798885169270566,-0.32486001001458975
1756899693.1088235,-0.34798885169270566,-0.3276480207262278
1756899693.1090205,-0.34798885169270566,-0.34065873738053876
1756899693.1092172,-0.34798885169270566,-0.3685388444969193
1756899693.1094134,-0.34798885169270566,-0.4140763527870076
1756899693.1096098,-0.34798885169270566,-0.47076590392364814
1756899693.1098068,-0.34798885169270566,-0.5339608133874442
1756899693.110005,-0.34798885169270566,-0.5999437335628781
1756899693.110201,-0.34798885169270566,-0.6649973168344329
1756899693.1104016,-0.34798885169270566,-0.720757531067194
1756899693.110597,-0.34798885169270566,-0.75514299651073
1756899693.1107926,-0.34798885169270566,-0.768153713165041
1756899693.1109886,-0.34798885169270566,-0.7672243762611617
1756899693.111184,-0.34798885169270566,-0.7607190179340062
1756899693.11138,-0.34798885169270566,-0.7514256488952127
1756899693.112232,-0.34798885169270566,-0.7439909536641779
1756899693.1124308,-0.34798885169270566,-0.7486376381835746
1756899693.1126258,-0.34798885169270566,-0.7690830500689204
1756899693.112822,-0.34798885169270566,-0.7978924940891803
1756899693.1144288,-0.34798885169270566,-0.8229845904939228
1756899693.1164026,-0.34798885169270566,-0.8406419916676305
1756899693.1183429,-0.34798885169270566,-0.8638754142646143
1756899693.1203618,-0.34798885169270566,-0.9075542487469439
1756899693.122666,-0.34798885169270566,-0.9698198213068605
1756899693.1227255,-0.41338821532408965,-0.9698198213068605
1756899693.124284,-0.41338821532408965,-1.0311560569628977
1756899693.1262982,-0.41338821532408965,-1.0776229021568653
1756899693.1285567,-0.41338821532408965,-1.108291019984884
1756899693.1440265,-0.41338821532408965,-1.1333831163896266
1756899693.1442845,-0.41338821532408965,-1.1594045496982484
1756899693.144482,-0.41338821532408965,-1.1891433306223878
1756899693.1446795,-0.41338821532408965,-1.2198114484504063
1756899693.1449025,-0.41338821532408965,-1.2551262507978218
1756899693.145101,-0.41338821532408965,-1.2997344221840308
1756899693.1452978,-0.41338821532408965,-1.3527066257051539
1756899693.145496,-0.41338821532408965,-1.4038201554185181
1756899693.147776,-0.41338821532408965,-1.4465696529969685
1756899693.1479752,-0.41338821532408965,-1.4809551184405045
1756899693.1497588,-0.41338821532408965,-1.5199872684034372
1756899693.1518545,-0.41338821532408965,-1.5748181457323192
1756899693.1551435,-0.41338821532408965,-1.6370837182922358
1756899693.1561365,-0.41338821532408965,-1.6789038789668067
1756899693.15769,-0.41338821532408965,-1.6835505634862034
1756899693.1597016,-0.41338821532408965,-1.6612464777930989
1756899693.1618772,-0.41338821532408965,-1.6426597397155118
